0;476
1;481
2;487
3;490
4;490
5;489
6;492
7;495
8;491
9;486
10;485
11;485
12;483
13;483
14;491
15;503
0;511
1;507
2;499
3;496
4;495
5;494
6;492
7;489
8;484
9;476
10;473
11;469
12;469
13;472
14;468
15;465
0;459
1;448
2;457
3;477
4;489
5;497
6;501
7;502
8;501
9;494
10;490
11;484
12;481
13;482
14;484
15;495
0;515
1;532
2;537
3;536
4;537
5;533
6;526
7;521
8;516
9;512
10;509
11;505
12;498
13;495
14;496
15;496
0;494
1;494
2;492
3;491
4;487
5;483
6;483
7;486
8;491
9;497
10;505
11;508
12;513
13;521
14;528
15;533
0;539
1;543
2;544
3;542
4;541
5;543
6;544
7;546
8;548
9;551
10;551
11;547
12;541
13;534
14;528
15;528
0;525
1;522
2;521
3;517
4;512
5;507
6;499
7;495
8;504
9;521
10;528
11;527
12;522
13;523
14;524
15;519
0;522
1;531
2;532
3;532
4;534
5;537
6;535
7;529
8;525
9;521
10;525
11;534
12;538
13;536
14;530
15;524
0;520
1;520
2;521
3;519
4;515
5;511
6;506
7;500
8;494
9;490
10;487
11;483
12;478
13;474
14;467
15;461
0;457
1;455
2;457
3;464
4;470
5;480
6;487
7;491
8;492
9;492
10;488
11;480
12;474
13;473
14;477
15;482
0;484
1;486
2;485
3;486
4;485
5;481
6;476
7;471
8;468
9;462
10;455
11;443
12;438
13;445
14;453
15;460
0;464
1;467
2;465
3;461
4;461
5;462
6;467
7;478
8;488
9;485
10;480
11;485
12;487
13;483
14;475
15;465
0;459
1;455
2;455
3;456
4;456
5;457
6;455
7;457
8;462
9;466
10;469
11;469
12;470
13;470
14;472
15;472
0;469
1;466
2;465
3;462
4;459
5;460
6;461
7;460
8;461
9;463
10;462
11;460
12;455
13;449
14;446
15;447
0;447
1;445
2;441
3;435
4;429
5;420
6;416
7;419
8;420
9;432
10;444
11;448
12;450
13;448
14;444
15;439
0;431
1;420
2;406
3;392
4;399
5;416
6;426
7;431
8;438
9;438
10;439
11;444
12;446
13;447
14;446
15;441
0;440
1;438
2;431
3;427
4;425
5;424
6;422
7;418
8;416
9;414
10;414
11;418
12;419
13;417
14;419
15;424
0;425
1;428
2;434
3;435
4;435
5;436
6;439
7;443
8;446
9;446
10;447
11;446
12;443
13;443
14;443
15;440
0;438
1;438
2;438
3;438
4;435
5;439
6;443
7;444
8;450
9;455
10;456
11;457
12;457
13;451
14;443
15;439
0;437
1;433
2;428
3;429
4;437
5;444
6;444
7;444
8;443
9;448
10;450
11;449
12;452
13;458
14;468
15;483
0;502
1;515
2;526
3;543
4;558
5;583
6;609
7;637
8;665
9;685
10;692
11;687
12;678
13;667
14;655
15;640
0;622
1;603
2;587
3;572
4;559
5;545
6;537
7;528
8;515
9;509
10;505
11;500
12;494
13;484
14;471
15;463
0;457
1;457
2;463
3;460
4;454
5;450
6;452
7;450
8;445
9;437
10;431
11;433
12;438
13;440
14;445
15;454
0;451
1;447
2;449
3;455
4;463
5;468
6;466
7;469
8;473
9;474
10;474
11;475
12;483
13;491
14;498
15;501
0;499
1;500
2;500
3;494
4;481
5;466
6;460
7;460
8;465
9;470
10;475
11;476
12;472
13;471
14;465
15;460
0;459
1;460
2;459
3;456
4;458
5;466
6;468
7;465
8;462
9;457
10;454
11;457
12;460
13;463
14;464
15;465
0;467
1;466
2;462
3;459
4;453
5;444
6;439
7;446
8;455
9;461
10;463
11;465
12;467
13;473
14;480
15;484
0;489
1;495
2;497
3;503
4;506
5;503
6;500
7;502
8;500
9;497
10;500
11;500
12;500
13;504
14;502
15;498
0;502
1;504
2;504
3;502
4;503
5;504
6;503
7;503
8;502
9;507
10;509
11;503
12;506
13;514
14;511
15;504
0;505
1;515
2;519
3;509
4;502
5;499
6;495
7;492
8;493
9;492
10;487
11;488
12;494
13;498
14;496
15;504
0;517
1;531
2;538
3;536
4;528
5;523
6;521
7;522
8;524
9;523
10;523
11;523
12;519
13;514
14;509
15;505
0;504
1;503
2;500
3;502
4;509
5;508
6;504
7;501
8;499
9;494
10;485
11;477
12;471
13;467
14;468
15;466
0;463
1;458
2;443
3;425
4;413
5;416
6;436
7;456
8;466
9;463
10;464
11;467
12;465
13;461
14;455
15;452
0;448
1;442
2;437
3;434
4;429
5;433
6;440
7;443
8;442
9;440
10;436
11;434
12;437
13;437
14;435
15;436
0;432
1;430
2;426
3;419
4;417
5;412
6;405
7;408
8;411
9;412
10;413
11;409
12;403
13;396
14;394
15;393
0;391
1;392
2;395
3;399
4;405
5;409
6;412
7;412
8;408
9;400
10;395
11;392
12;391
13;401
14;406
15;412
0;416
1;408
2;405
3;411
4;418
5;429
6;441
7;447
8;451
9;447
10;443
11;447
12;454
13;460
14;454
15;445
0;435
1;427
2;431
3;440
4;457
5;481
6;497
7;500
8;500
9;500
10;495
11;492
12;482
13;474
14;466
15;458
0;445
1;438
2;441
3;447
4;457
5;468
6;479
7;490
8;500
9;504
10;505
11;507
12;503
13;504
14;508
15;510
0;508
1;508
2;507
3;504
4;496
5;491
6;492
7;496
8;499
9;500
10;498
11;495
12;491
13;489
14;486
15;485
0;486
1;483
2;482
3;484
4;484
5;483
6;482
7;484
8;485
9;485
10;486
11;484
12;481
13;480
14;481
15;480
0;479
1;480
2;484
3;487
4;492
5;496
6;501
7;505
8;508
9;512
10;516
11;520
12;516
13;509
14;508
15;509
0;510
1;515
2;515
3;510
4;501
5;499
6;497
7;501
8;514
9;531
10;540
11;540
12;532
13;526
14;521
15;517
0;519
1;531
2;543
3;551
4;555
5;555
6;555
7;553
8;554
9;551
10;550
11;549
12;550
13;551
14;552
15;559
0;566
1;566
2;566
3;570
4;571
5;570
6;568
7;569
8;570
9;568
10;564
11;564
12;570
13;575
14;577
15;578
0;580
1;580
2;579
3;577
4;576
5;573
6;569
7;564
8;562
9;561
10;562
11;561
12;560
13;560
14;560
15;560
0;558
1;560
2;566
3;571
4;575
5;580
6;580
7;580
8;582
9;584
10;585
11;585
12;586
13;584
14;584
15;583
0;579
1;575
2;572
3;573
4;576
5;578
6;581
7;582
8;583
9;583
10;583
11;585
12;586
13;587
14;583
15;581
0;578
1;572
2;570
3;574
4;575
5;581
6;583
7;587
8;590
9;590
10;590
11;595
12;601
13;606
14;608
15;607
0;606
1;605
2;597
3;585
4;582
5;585
6;588
7;592
8;604
9;605
10;591
11;581
12;578
13;583
14;596
15;608
0;621
1;630
2;636
3;636
4;631
5;624
6;621
7;620
8;621
9;617
10;613
11;610
12;608
13;607
14;606
15;610
0;613
1;615
2;614
3;608
4;602
5;597
6;597
7;599
8;596
9;595
10;596
11;597
12;596
13;597
14;595
15;592
0;591
1;591
2;593
3;593
4;591
5;587
6;579
7;571
8;563
9;554
10;553
11;559
12;568
13;578
14;583
15;588
0;591
1;591
2;594
3;600
4;598
5;595
6;595
7;600
8;608
9;611
10;610
11;615
12;622
13;625
14;629
15;633
0;638
1;642
2;645
3;645
4;642
5;636
6;633
7;639
8;639
9;636
10;638
11;643
12;638
13;636
14;636
15;631
0;626
1;623
2;616
3;612
4;613
5;619
6;626
7;627
8;622
9;616
10;612
11;604
12;601
13;605
14;612
15;617
0;622
1;623
2;626
3;628
4;628
5;626
6;618
7;612
8;606
9;599
10;591
11;584
12;581
13;581
14;582
15;582
0;580
1;581
2;583
3;585
4;587
5;593
6;604
7;612
8;617
9;619
10;631
11;647
12;665
13;682
14;693
15;703
0;716
1;721
2;719
3;708
4;694
5;684
6;671
7;674
8;673
9;664
10;660
11;659
12;659
13;669
14;675
15;674
0;672
1;669
2;659
3;647
4;637
5;628
6;616
7;610
8;609
9;601
10;592
11;586
12;583
13;579
14;577
15;575
0;568
1;562
2;559
3;554
4;548
5;545
6;543
7;540
8;540
9;540
10;539
11;539
12;540
13;541
14;542
15;544
0;547
1;547
2;545
3;543
4;542
5;539
6;539
7;538
8;536
9;536
10;537
11;537
12;540
13;544
14;550
15;555
0;555
1;562
2;561
3;554
4;548
5;545
6;544
7;550
8;553
9;549
10;543
11;545
12;549
13;551
14;551
15;548
0;551
1;551
2;547
3;546
4;547
5;547
6;545
7;546
8;549
9;552
10;556
11;554
12;551
13;545
14;541
15;537
0;534
1;531
2;529
3;530
4;535
5;540
6;539
7;537
8;537
9;536
10;535
11;529
12;521
13;523
14;525
15;527
0;534
1;540
2;547
3;553
4;551
5;547
6;545
7;544
8;541
9;541
10;544
11;549
12;550
13;546
14;541
15;540
0;540
1;538
2;539
3;537
4;531
5;529
6;527
7;525
8;521
9;515
10;507
11;510
12;515
13;510
14;504
15;508
0;515
1;519
2;519
3;519
4;519
5;520
6;528
7;535
8;539
9;536
10;534
11;531
12;530
13;541
14;553
15;560
0;559
1;555
2;550
3;548
4;548
5;545
6;543
7;544
8;544
9;544
10;547
11;553
12;557
13;557
14;556
15;553
0;549
1;547
2;547
3;547
4;546
5;540
6;537
7;532
8;529
9;535
10;539
11;542
12;546
13;551
14;553
15;553
0;554
1;558
2;557
3;552
4;542
5;526
6;513
7;503
8;498
9;506
10;528
11;557
12;574
13;579
14;580
15;578
0;575
1;570
2;564
3;563
4;567
5;566
6;566
7;566
8;565
9;563
10;559
11;556
12;555
13;558
14;560
15;561
0;561
1;559
2;556
3;553
4;553
5;552
6;553
7;551
8;551
9;554
10;557
11;558
12;561
13;564
14;564
15;561
0;559
1;557
2;547
3;537
4;533
5;531
6;529
7;530
8;538
9;544
10;545
11;544
12;543
13;542
14;541
15;547
0;552
1;555
2;551
3;545
4;535
5;526
6;521
7;519
8;523
9;526
10;530
11;538
12;543
13;544
14;543
15;543
0;542
1;540
2;538
3;537
4;537
5;536
6;532
7;528
8;527
9;532
10;533
11;530
12;525
13;519
14;515
15;519
0;525
1;524
2;520
3;515
4;514
5;514
6;515
7;513
8;507
9;507
10;515
11;522
12;525
13;523
14;523
15;527
0;534
1;540
2;548
3;551
4;552
5;551
6;550
7;547
8;543
9;539
10;539
11;542
12;539
13;535
14;531
15;527
0;521
1;512
2;506
3;507
4;514
5;534
6;556
7;563
8;565
9;560
10;553
11;548
12;541
13;541
14;545
15;549
0;551
1;550
2;544
3;540
4;533
5;523
6;515
7;509
8;507
9;510
10;516
11;525
12;528
13;531
14;534
15;536
0;534
1;531
2;527
3;524
4;521
5;520
6;524
7;527
8;525
9;526
10;528
11;533
12;537
13;538
14;535
15;531
0;534
1;537
2;540
3;547
4;552
5;557
6;564
7;566
8;565
9;562
10;558
11;555
12;554
13;550
14;543
15;537
0;530
1;524
2;524
3;529
4;534
5;539
6;542
7;544
8;547
9;550
10;548
11;547
12;545
13;545
14;547
15;549
0;551
1;552
2;553
3;551
4;552
5;552
6;550
7;547
8;546
9;539
10;538
11;543
12;545
13;547
14;557
15;565
0;563
1;555
2;544
3;540
4;540
5;544
6;556
7;567
8;576
9;576
10;571
11;571
12;565
13;556
14;551
15;553
0;558
1;559
2;558
3;555
4;549
5;543
6;539
7;533
8;527
9;522
10;520
11;519
12;525
13;531
14;540
15;543
0;540
1;538
2;540
3;540
4;539
5;538
6;541
7;540
8;539
9;544
10;544
11;537
12;530
13;527
14;525
15;519
0;513
1;510
2;513
3;521
4;526
5;527
6;528
7;527
8;527
9;530
10;530
11;528
12;523
13;525
14;528
15;527
0;526
1;521
2;516
3;514
4;514
5;516
6;516
7;518
8;518
9;515
10;513
11;514
12;512
13;507
14;512
15;530
0;538
1;533
2;523
3;513
4;507
5;507
6;516
7;526
8;528
9;528
10;526
11;524
12;526
13;529
14;529
15;524
0;518
1;509
2;505
3;505
4;506
5;512
6;514
7;509
8;505
9;504
10;508
11;512
12;515
13;516
14;517
15;518
0;519
1;517
2;511
3;507
4;502
5;498
6;495
7;495
8;498
9;502
10;506
11;509
12;507
13;499
14;492
15;489
0;490
1;492
2;494
3;492
4;490
5;484
6;483
7;482
8;482
9;483
10;480
11;475
12;470
13;468
14;468
15;468
0;469
1;473
2;479
3;482
4;487
5;495
6;501
7;505
8;511
9;523
10;537
11;549
12;557
13;569
14;578
15;584
0;585
1;590
2;599
3;608
4;611
5;601
6;591
7;585
8;580
9;579
10;577
11;575
12;571
13;569
14;568
15;561
0;552
1;546
2;531
3;519
4;508
5;498
6;494
7;494
8;497
9;498
10;500
11;499
12;497
13;494
14;489
15;483
0;475
1;467
2;461
3;455
4;453
5;450
6;450
7;450
8;447
9;451
10;458
11;463
12;464
13;466
14;469
15;469
0;468
1;468
2;467
3;465
4;465
5;465
6;466
7;468
8;468
9;466
10;464
11;461
12;458
13;452
14;447
15;443
0;447
1;453
2;459
3;461
4;460
5;457
6;454
7;455
8;454
9;452
10;453
11;455
12;456
13;453
14;451
15;452
0;457
1;463
2;465
3;468
4;472
5;478
6;481
7;480
8;477
9;473
10;471
11;471
12;467
13;455
14;443
15;440
0;450
1;464
2;474
3;483
4;492
5;490
6;478
7;467
8;460
9;458
10;460
11;468
12;474
13;476
14;482
15;486
0;484
1;481
2;478
3;473
4;471
5;470
6;469
7;472
8;473
9;476
10;474
11;471
12;469
13;466
14;464
15;462
0;461
1;460
2;463
3;470
4;475
5;475
6;471
7;467
8;463
9;461
10;459
11;459
12;462
13;465
14;465
15;467
0;468
1;466
2;465
3;465
4;466
5;467
6;468
7;470
8;470
9;471
10;472
11;478
12;478
13;474
14;472
15;470
0;466
1;463
2;464
3;468
4;472
5;472
6;476
7;479
8;478
9;478
10;476
11;473
12;470
13;468
14;468
15;465
0;465
1;462
2;459
3;457
4;453
5;451
6;453
7;458
8;458
9;456
10;461
11;463
12;462
13;459
14;454
15;448
0;446
1;450
2;454
3;461
4;467
5;469
6;473
7;471
8;467
9;467
10;464
11;464
12;463
13;465
14;467
15;465
0;471
1;475
2;474
3;473
4;471
5;469
6;468
7;466
8;466
9;463
10;462
11;463
12;462
13;461
14;463
15;466
0;469
1;470
2;471
3;474
4;476
5;477
6;476
7;475
8;471
9;469
10;469
11;471
12;476
13;480
14;483
15;483
0;484
1;484
2;482
3;475
4;466
5;460
6;458
7;461
8;468
9;472
10;469
11;462
12;452
13;447
14;449
15;459
0;465
1;472
2;481
3;494
4;499
5;499
6;497
7;495
8;495
9;495
10;498
11;504
12;507
13;505
14;502
15;497
0;491
1;488
2;486
3;484
4;484
5;483
6;483
7;485
8;485
9;485
10;484
11;481
12;477
13;474
14;470
15;466
0;465
1;464
2;465
3;467
4;472
5;475
6;476
7;476
8;474
9;472
10;471
11;468
12;465
13;464
14;462
15;459
0;459
1;463
2;466
3;466
4;465
5;467
6;470
7;470
8;470
9;467
10;462
11;458
12;455
13;448
14;451
15;465
0;475
1;476
2;476
3;477
4;476
5;475
6;478
7;484
8;491
9;489
10;482
11;486
12;496
13;499
14;501
15;507
0;511
1;506
2;501
3;497
4;495
5;496
6;499
7;500
8;500
9;497
10;495
11;490
12;485
13;479
14;475
15;474
0;472
1;472
2;474
3;476
4;477
5;478
6;481
7;485
8;488
9;491
10;489
11;487
12;488
13;486
14;482
15;480
0;477
1;474
2;471
3;468
4;462
5;457
6;457
7;452
8;447
9;446
10;452
11;460
12;465
13;465
14;463
15;461
0;460
1;457
2;455
3;452
4;448
5;443
6;446
7;454
8;457
9;460
10;480
11;504
12;511
13;505
14;501
15;501
0;494
1;484
2;473
3;479
4;484
5;488
6;496
7;508
8;512
9;506
10;499
11;498
12;496
13;493
14;486
15;483
0;482
1;481
2;479
3;476
4;475
5;475
6;476
7;477
8;478
9;478
10;479
11;478
12;478
13;479
14;477
15;475
0;475
1;475
2;475
3;475
4;477
5;476
6;476
7;478
8;480
9;482
10;483
11;484
12;480
13;475
14;472
15;473
0;473
1;468
2;470
3;478
4;480
5;473
6;474
7;481
8;486
9;486
10;478
11;471
12;465
13;461
14;467
15;487
0;497
1;494
2;495
3;492
4;488
5;486
6;482
7;480
8;479
9;478
10;475
11;472
12;469
13;465
14;467
15;468
0;468
1;467
2;465
3;462
4;460
5;462
6;465
7;465
8;460
9;455
10;453
11;453
12;458
13;464
14;466
15;467
0;467
1;469
2;468
3;465
4;461
5;455
6;450
7;443
8;436
9;433
10;437
11;444
12;457
13;464
14;465
15;467
0;463
1;458
2;457
3;455
4;455
5;451
6;446
7;441
8;443
9;446
10;455
11;468
12;478
13;476
14;473
15;469
0;468
1;468
2;468
3;468
4;467
5;465
6;463
7;463
8;462
9;463
10;465
11;467
12;467
13;468
14;466
15;464
0;463
1;465
2;464
3;464
4;465
5;465
6;464
7;463
8;462
9;460
10;457
11;458
12;460
13;459
14;457
15;455
0;451
1;447
2;446
3;443
4;441
5;446
6;449
7;444
8;434
9;432
10;437
11;443
12;443
13;436
14;426
15;413
0;405
1;403
2;408
3;432
4;454
5;465
6;465
7;464
8;471
9;482
10;484
11;486
12;504
13;524
14;543
15;556
0;561
1;560
2;558
3;557
4;556
5;556
6;556
7;557
8;558
9;555
10;554
11;552
12;551
13;548
14;538
15;527
0;515
1;504
2;493
3;485
4;477
5;468
6;460
7;455
8;452
9;448
10;442
11;435
12;429
13;423
14;418
15;415
0;414
1;414
2;412
3;409
4;408
5;408
6;408
7;409
8;411
9;415
10;418
11;417
12;418
13;423
14;426
15;427
0;423
1;418
2;417
3;418
4;417
5;415
6;417
7;423
8;430
9;435
10;437
11;440
12;443
13;447
14;447
15;444
0;443
1;443
2;439
3;438
4;440
5;443
6;445
7;451
8;456
9;455
10;456
11;458
12;459
13;455
14;451
15;448
0;441
1;436
2;437
3;438
4;435
5;432
6;430
7;427
8;420
9;410
10;401
11;396
12;390
13;390
14;403
15;435
0;468
1;476
2;472
3;470
4;469
5;469
6;466
7;460
8;457
9;455
10;452
11;451
12;452
13;446
14;440
15;439
0;438
1;435
2;433
3;432
4;432
5;435
6;436
7;435
8;432
9;430
10;428
11;427
12;425
13;421
14;423
15;424
0;421
1;418
2;421
3;423
4;420
5;418
6;420
7;424
8;429
9;432
10;431
11;430
12;424
13;419
14;419
15;419
0;420
1;422
2;428
3;434
4;440
5;440
6;436
7;432
8;432
9;435
10;434
11;434
12;436
13;441
14;445
15;446
0;443
1;438
2;435
3;436
4;438
5;439
6;439
7;438
8;436
9;433
10;429
11;423
12;419
13;415
14;409
15;408
0;415
1;424
2;428
3;434
4;439
5;440
6;439
7;439
8;443
9;448
10;450
11;446
12;439
13;438
14;444
15;447
0;449
1;466
2;475
3;477
4;472
5;467
6;461
7;455
8;451
9;449
10;450
11;452
12;455
13;452
14;452
15;457
0;463
1;467
2;469
3;472
4;474
5;472
6;469
7;469
8;469
9;467
10;468
11;469
12;468
13;468
14;471
15;472
0;470
1;468
2;469
3;469
4;471
5;472
6;476
7;479
8;481
9;483
10;487
11;489
12;492
13;492
14;492
15;489
0;485
1;482
2;480
3;480
4;480
5;480
6;480
7;480
8;480
9;480
10;478
11;472
12;461
13;452
14;443
15;435
0;434
1;455
2;488
3;499
4;500
5;505
6;507
7;499
8;496
9;494
10;490
11;489
12;495
13;505
14;511
15;513
0;516
1;517
2;517
3;511
4;504
5;501
6;501
7;501
8;505
9;507
10;508
11;509
12;508
13;507
14;504
15;501
0;499
1;497
2;496
3;493
4;487
5;483
6;481
7;481
8;483
9;486
10;487
11;487
12;489
13;490
14;491
15;490
0;489
1;486
2;484
3;479
4;471
5;469
6;464
7;463
8;466
9;476
10;485
11;484
12;488
13;492
14;494
15;496
0;495
1;496
2;497
3;495
4;496
5;502
6;500
7;492
8;483
9;479
10;483
11;493
12;511
13;525
14;531
15;530
0;529
1;531
2;531
3;527
4;523
5;520
6;518
7;515
8;513
9;511
10;512
11;511
12;509
13;508
14;505
15;504
0;502
1;497
2;493
3;491
4;492
5;490
6;491
7;497
8;504
9;505
10;505
11;507
12;505
13;504
14;507
15;510
0;508
1;503
2;498
3;492
4;490
5;488
6;488
7;487
8;483
9;480
10;479
11;479
12;478
13;479
14;486
15;496
0;499
1;499
2;497
3;493
4;494
5;493
6;499
7;504
8;505
9;503
10;506
11;503
12;496
13;492
14;492
15;500
0;513
1;527
2;535
3;533
4;527
5;524
6;519
7;518
8;517
9;516
10;518
11;520
12;526
13;528
14;528
15;527
0;525
1;527
2;528
3;527
4;529
5;531
6;531
7;530
8;529
9;528
10;529
11;533
12;537
13;537
14;532
15;529
0;527
1;526
2;528
3;531
4;534
5;538
6;538
7;536
8;533
9;530
10;526
11;524
12;528
13;534
14;540
15;537
0;532
1;529
2;529
3;529
4;532
5;536
6;542
7;539
8;533
9;525
10;519
11;515
12;514
13;513
14;512
15;512
0;510
1;505
2;497
3;488
4;479
5;470
6;470
7;494
8;518
9;534
10;544
11;543
12;536
13;528
14;521
15;513
0;506
1;500
2;499
3;499
4;499
5;500
6;501
7;503
8;503
9;507
10;513
11;514
12;509
13;511
14;515
15;521
0;523
1;523
2;524
3;528
4;529
5;529
6;527
7;524
8;522
9;518
10;518
11;521
12;523
13;522
14;523
15;524
0;530
1;532
2;534
3;531
4;524
5;519
6;514
7;515
8;519
9;529
10;532
11;529
12;526
13;522
14;519
15;515
0;508
1;502
2;499
3;497
4;497
5;504
6;508
7;526
8;553
9;568
10;571
11;567
12;559
13;553
14;549
15;547
0;544
1;543
2;541
3;538
4;535
5;535
6;531
7;531
8;532
9;530
10;527
11;527
12;528
13;527
14;525
15;524
0;522
1;522
2;522
3;519
4;518
5;514
6;512
7;514
8;518
9;524
10;527
11;519
12;515
13;514
14;510
15;505
0;504
1;500
2;494
3;492
4;487
5;485
6;491
7;503
8;519
9;528
10;541
11;554
12;571
13;591
14;612
15;633
0;652
1;665
2;673
3;674
4;673
5;671
6;672
7;674
8;671
9;668
10;672
11;678
12;672
13;661
14;651
15;643
0;638
1;629
2;616
3;604
4;593
5;583
6;573
7;564
8;555
9;546
10;537
11;528
12;520
13;517
14;517
15;515
0;515
1;516
2;519
3;525
4;529
5;531
6;534
7;533
8;532
9;531
10;531
11;531
12;531
13;531
14;533
15;536
0;536
1;536
2;535
3;532
4;531
5;530
6;529
7;531
8;533
9;539
10;541
11;542
12;544
13;544
14;546
15;550
0;548
1;550
2;549
3;542
4;539
5;540
6;544
7;545
8;546
9;547
10;551
11;554
12;557
13;557
14;555
15;555
0;555
1;554
2;555
3;555
4;555
5;554
6;553
7;552
8;550
9;544
10;538
11;533
12;533
13;541
14;558
15;568
0;577
1;583
2;578
3;571
4;565
5;563
6;568
7;568
8;567
9;565
10;560
11;556
12;551
13;549
14;550
15;553
0;550
1;543
2;535
3;528
4;527
5;536
6;546
7;549
8;548
9;550
10;552
11;552
12;551
13;552
14;556
15;557
0;557
1;557
2;556
3;555
4;553
5;551
6;549
7;546
8;545
9;544
10;542
11;542
12;543
13;543
14;544
15;543
0;542
1;539
2;535
3;531
4;527
5;521
6;513
7;508
8;505
9;502
10;503
11;507
12;516
13;525
14;527
15;528
0;534
1;537
2;540
3;535
4;532
5;534
6;535
7;541
8;542
9;540
10;536
11;530
12;527
13;529
14;530
15;528
0;530
1;538
2;541
3;542
4;543
5;539
6;533
7;529
8;521
9;515
10;515
11;517
12;518
13;517
14;516
15;514
0;515
1;513
2;512
3;513
4;513
5;511
6;508
7;504
8;500
9;497
10;496
11;495
12;494
13;491
14;490
15;490
0;494
1;498
2;499
3;498
4;498
5;499
6;498
7;496
8;493
9;492
10;492
11;496
12;501
13;504
14;507
15;508
0;507
1;511
2;516
3;525
4;534
5;538
6;538
7;535
8;532
9;530
10;526
11;528
12;530
13;531
14;536
15;539
0;538
1;536
2;535
3;535
4;532
5;530
6;528
7;529
8;528
9;527
10;528
11;537
12;542
13;544
14;542
15;536
0;533
1;532
2;527
3;524
4;522
5;516
6;517
7;519
8;519
9;519
10;515
11;508
12;503
13;500
14;504
15;516
0;529
1;533
2;533
3;534
4;532
5;534
6;534
7;534
8;536
9;532
10;528
11;524
12;522
13;524
14;526
15;530
0;529
1;523
2;525
3;525
4;524
5;525
6;526
7;525
8;522
9;517
10;512
11;510
12;511
13;509
14;508
15;506
0;503
1;502
2;502
3;501
4;500
5;501
6;502
7;502
8;503
9;502
10;499
11;496
12;494
13;494
14;492
15;491
0;491
1;489
2;489
3;488
4;486
5;483
6;482
7;482
8;484
9;483
10;483
11;481
12;478
13;474
14;469
15;468
0;467
1;465
2;460
3;455
4;453
5;449
6;446
7;447
8;453
9;454
10;458
11;470
12;486
13;498
14;511
15;518
0;520
1;523
2;520
3;514
4;510
5;505
6;502
7;498
8;494
9;489
10;485
11;481
12;479
13;481
14;483
15;486
0;484
1;483
2;481
3;479
4;477
5;475
6;474
7;472
8;473
9;473
10;473
11;473
12;474
13;473
14;473
15;471
0;469
1;467
2;466
3;465
4;460
5;458
6;457
7;457
8;458
9;460
10;464
11;464
12;462
13;459
14;455
15;455
0;454
1;453
2;454
3;456
4;460
5;464
6;470
7;475
8;478
9;481
10;483
11;483
12;487
13;488
14;487
15;483
0;479
1;474
2;469
3;468
4;475
5;484
6;488
7;483
8;476
9;470
10;466
11;467
12;475
13;483
14;494
15;504
0;509
1;507
2;507
3;506
4;504
5;503
6;505
7;508
8;508
9;509
10;509
11;510
12;512
13;512
14;510
15;507
0;499
1;491
2;486
3;485
4;486
5;485
6;485
7;487
8;490
9;498
10;504
11;504
12;500
13;497
14;494
15;491
0;487
1;483
2;481
3;482
4;481
5;480
6;480
7;479
8;477
9;476
10;476
11;479
12;482
13;485
14;483
15;482
0;483
1;483
2;481
3;480
4;477
5;478
6;478
7;477
8;477
9;476
10;472
11;470
12;470
13;470
14;470
15;468
0;465
1;462
2;456
3;452
4;453
5;459
6;469
7;476
8;477
9;477
10;476
11;476
12;479
13;486
14;490
15;492
0;492
1;492
2;493
3;490
4;487
5;484
6;480
7;476
8;476
9;484
10;491
11;499
12;506
13;510
14;513
15;514
0;513
1;512
2;509
3;506
4;505
5;504
6;503
7;501
8;497
9;493
10;490
11;491
12;490
13;487
14;487
15;483
0;477
1;472
2;465
3;460
4;458
5;462
6;474
7;488
8;497
9;495
10;488
11;482
12;479
13;489
14;502
15;505
0;508
1;506
2;508
3;511
4;509
5;500
6;492
7;486
8;480
9;472
10;467
11;465
12;466
13;463
14;460
15;460
0;463
1;464
2;467
3;475
4;485
5;493
6;501
7;509
8;515
9;522
10;532
11;546
12;561
13;575
14;593
15;609
0;616
1;616
2;614
3;610
4;607
5;605
6;600
7;598
8;597
9;593
10;591
11;589
12;587
13;582
14;574
15;566
0;557
1;549
2;542
3;536
4;530
5;526
6;522
7;518
8;511
9;504
10;496
11;484
12;472
13;463
14;459
15;466
0;475
1;487
2;499
3;503
4;499
5;494
6;492
7;489
8;487
9;484
10;480
11;480
12;477
13;484
14;503
15;513
0;519
1;524
2;530
3;532
4;535
5;537
6;533
7;529
8;525
9;521
10;518
11;515
12;514
13;513
14;513
15;513
0;512
1;514
2;516
3;516
4;517
5;514
6;514
7;517
8;518
9;517
10;515
11;513
12;510
13;510
14;509
15;508
0;509
1;512
2;513
3;514
4;515
5;516
6;517
7;515
8;515
9;512
10;508
11;505
12;505
13;506
14;506
15;508
0;510
1;516
2;521
3;521
4;518
5;518
6;518
7;521
8;527
9;531
10;531
11;523
12;511
13;500
14;502
15;512
0;520
1;525
2;524
3;522
4;523
5;532
6;546
7;562
8;574
9;577
10;572
11;566
12;562
13;557
14;552
15;550
0;546
1;543
2;542
3;543
4;544
5;547
6;547
7;546
8;544
9;544
10;542
11;540
12;539
13;540
14;539
15;540
0;539
1;539
2;540
3;540
4;540
5;540
6;542
7;541
8;540
9;539
10;538
11;535
12;531
13;530
14;531
15;529
0;527
1;524
2;525
3;528
4;528
5;530
6;539
7;547
8;547
9;543
10;543
11;542
12;539
13;537
14;539
15;545
0;553
1;556
2;556
3;553
4;556
5;561
6;566
7;569
8;566
9;562
10;560
11;558
12;554
13;552
14;553
15;556
0;555
1;550
2;546
3;546
4;548
5;550
6;552
7;555
8;557
9;556
10;557
11;561
12;561
13;560
14;557
15;552
0;546
1;546
2;547
3;549
4;551
5;551
6;551
7;546
8;540
9;540
10;547
11;556
12;564
13;572
14;577
15;575
0;572
1;573
2;578
3;577
4;573
5;565
6;555
7;553
8;551
9;552
10;553
11;557
12;567
13;572
14;576
15;577
0;580
1;578
2;576
3;580
4;579
5;576
6;575
7;574
8;575
9;576
10;573
11;569
12;568
13;566
14;563
15;560
0;559
1;559
2;558
3;561
4;563
5;566
6;570
7;572
8;574
9;576
10;574
11;571
12;567
13;563
14;559
15;557
0;557
1;555
2;553
3;551
4;550
5;551
6;554
7;554
8;554
9;555
10;556
11;556
12;554
13;554
14;553
15;552
0;552
1;554
2;555
3;554
4;555
5;555
6;555
7;552
8;550
9;549
10;546
11;545
12;547
13;556
14;563
15;566
0;566
1;561
2;555
3;553
4;551
5;551
6;551
7;548
8;544
9;542
10;543
11;545
12;549
13;561
14;571
15;570
0;567
1;560
2;550
3;540
4;531
5;532
6;542
7;552
8;557
9;558
10;555
11;551
12;548
13;547
14;548
15;548
0;544
1;542
2;542
3;544
4;544
5;542
6;542
7;541
8;540
9;539
10;536
11;534
12;535
13;536
14;540
15;541
0;540
1;540
2;539
3;538
4;539
5;541
6;542
7;542
8;542
9;541
10;541
11;542
12;541
13;542
14;543
15;541
0;539
1;537
2;538
3;536
4;534
5;533
6;533
7;535
8;536
9;536
10;533
11;529
12;527
13;527
14;525
15;523
0;513
1;503
2;499
3;499
4;503
5;509
6;516
7;524
8;523
9;525
10;532
11;531
12;524
13;519
14;524
15;531
0;540
1;549
2;551
3;545
4;540
5;535
6;527
7;523
8;518
9;514
10;511
11;510
12;510
13;512
14;516
15;520
0;521
1;520
2;520
3;519
4;520
5;518
6;516
7;518
8;518
9;519
10;519
11;520
12;520
13;521
14;523
15;527
0;528
1;529
2;530
3;528
4;526
5;526
6;526
7;525
8;524
9;521
10;519
11;520
12;522
13;523
14;524
15;525
0;524
1;523
2;524
3;523
4;519
5;516
6;518
7;520
8;520
9;516
10;511
11;512
12;519
13;529
14;541
15;552
0;556
1;556
2;552
3;547
4;543
5;542
6;540
7;540
8;542
9;544
10;539
11;537
12;538
13;540
14;538
15;534
0;530
1;524
2;524
3;524
4;524
5;523
6;523
7;523
8;519
9;518
10;517
11;508
12;499
13;495
14;486
15;481
0;485
1;488
2;492
3;505
4;530
5;542
6;541
7;538
8;534
9;531
10;527
11;525
12;521
13;516
14;515
15;512
0;511
1;510
2;510
3;511
4;510
5;507
6;504
7;499
8;497
9;493
10;489
11;485
12;482
13;483
14;484
15;486
0;488
1;490
2;495
3;501
4;504
5;507
6;509
7;511
8;511
9;511
10;509
11;504
12;501
13;499
14;498
15;500
0;500
1;501
2;500
3;501
4;501
5;502
6;503
7;504
8;506
9;507
10;508
11;508
12;505
13;502
14;496
15;493
0;495
1;494
2;495
3;498
4;498
5;500
6;503
7;503
8;497
9;489
10;481
11;473
12;473
13;484
14;504
15;514
0;511
1;511
2;512
3;513
4;511
5;508
6;505
7;502
8;499
9;497
10;496
11;497
12;499
13;501
14;505
15;511
0;516
1;512
2;504
3;495
4;484
5;475
6;469
7;467
8;470
9;477
10;483
11;488
12;496
13;504
14;509
15;512
0;517
1;522
2;526
3;534
4;547
5;559
6;563
7;564
8;561
9;556
10;554
11;555
12;550
13;549
14;551
15;551
0;554
1;558
2;557
3;551
4;543
5;532
6;520
7;512
8;509
9;508
10;509
11;507
12;504
13;501
14;496
15;492
0;487
1;486
2;485
3;484
4;483
5;481
6;480
7;478
8;478
9;477
10;478
11;477
12;475
13;476
14;479
15;482
0;484
1;485
2;486
3;488
4;492
5;493
6;492
7;493
8;492
9;492
10;492
11;494
12;497
13;503
14;510
15;516
0;523
1;531
2;535
3;533
4;529
5;521
6;512
7;504
8;501
9;503
10;508
11;519
12;529
13;536
14;533
15;528
0;526
1;523
2;520
3;525
4;533
5;540
6;542
7;543
8;541
9;540
10;540
11;539
12;540
13;539
14;536
15;538
0;538
1;537
2;538
3;537
4;537
5;537
6;539
7;540
8;543
9;540
10;538
11;537
12;537
13;538
14;543
15;546
0;549
1;550
2;548
3;543
4;539
5;536
6;535
7;536
8;537
9;539
10;540
11;540
12;540
13;542
14;544
15;548
0;550
1;550
2;550
3;551
4;550
5;548
6;544
7;543
8;541
9;542
10;544
11;545
12;544
13;541
14;541
15;538
0;536
1;534
2;532
3;529
4;525
5;523
6;523
7;523
8;521
9;519
10;513
11;505
12;501
13;500
14;508
15;520
0;533
1;541
2;547
3;549
4;550
5;545
6;538
7;531
8;526
9;525
10;526
11;524
12;524
13;520
14;514
15;511
0;509
1;508
2;512
3;519
4;524
5;526
6;526
7;521
8;518
9;517
10;516
11;514
12;513
13;512
14;512
15;510
0;509
1;508
2;506
3;505
4;505
5;502
6;500
7;500
8;500
9;499
10;499
11;499
12;500
13;500
14;501
15;504
0;506
1;507
2;506
3;503
4;500
5;497
6;495
7;494
8;498
9;502
10;505
11;510
12;513
13;515
14;519
15;520
0;518
1;514
2;513
3;515
4;517
5;523
6;527
7;524
8;516
9;509
10;511
11;517
12;521
13;527
14;531
15;532
0;531
1;529
2;529
3;523
4;519
5;518
6;514
7;510
8;505
9;505
10;508
11;512
12;518
13;516
14;511
15;508
0;511
1;517
2;520
3;518
4;514
5;509
6;502
7;496
8;495
9;498
10;499
11;499
12;496
13;494
14;495
15;496
0;496
1;498
2;499
3;501
4;502
5;501
6;499
7;497
8;492
9;487
10;484
11;485
12;486
13;486
14;487
15;490
0;491
1;492
2;493
3;494
4;495
5;495
6;495
7;496
8;495
9;494
10;495
11;495
12;497
13;498
14;498
15;496
0;495
1;496
2;496
3;497
4;499
5;498
6;498
7;497
8;497
9;492
10;489
11;489
12;490
13;491
14;491
15;495
0;497
1;495
2;494
3;494
4;502
5;508
6;507
7;506
8;504
9;499
10;491
11;485
12;476
13;478
14;486
15;492
0;491
1;493
2;492
3;486
4;480
5;478
6;487
7;506
8;523
9;526
10;522
11;518
12;513
13;509
14;504
15;504
0;503
1;499
2;495
3;494
4;492
5;491
6;487
7;484
8;486
9;491
10;496
11;494
12;492
13;491
14;487
15;487
0;491
1;494
2;495
3;495
4;495
5;493
6;492
7;489
8;486
9;487
10;487
11;487
12;486
13;485
14;484
15;484
0;484
1;482
2;481
3;481
4;480
5;482
6;485
7;486
8;488
9;489
10;487
11;485
12;481
13;479
14;477
15;476
0;471
1;464
2;463
3;466
4;469
5;479
6;491
7;496
8;501
9;504
10;500
11;492
12;487
13;483
14;480
15;477
0;474
1;473
2;470
3;467
4;465
5;461
6;456
7;456
8;464
9;488
10;507
11;510
12;511
13;514
14;518
15;520
0;526
1;530
2;530
3;528
4;527
5;528
6;530
7;532
8;536
9;537
10;540
11;542
12;543
13;543
14;542
15;541
0;537
1;536
2;533
3;532
4;535
5;536
6;534
7;533
8;535
9;539
10;540
11;539
12;539
13;538
14;539
15;540
0;540
1;542
2;541
3;540
4;542
5;543
6;545
7;548
8;550
9;552
10;554
11;556
12;558
13;561
14;563
15;562
0;560
1;556
2;551
3;546
4;539
5;541
6;555
7;565
8;572
9;573
10;574
11;571
12;569
13;568
14;569
15;571
0;572
1;572
2;568
3;564
4;561
5;560
6;560
7;558
8;557
9;560
10;560
11;560
12;561
13;564
14;565
15;563
0;564
1;564
2;563
3;561
4;560
5;560
6;560
7;558
8;552
9;545
10;544
11;544
12;545
13;546
14;544
15;541
0;537
1;532
2;529
3;529
4;527
5;526
6;540
7;551
8;555
9;561
10;564
11;564
12;559
13;556
14;557
15;557
0;557
1;555
2;552
3;551
4;550
5;548
6;547
7;551
8;548
9;540
10;542
11;549
12;549
13;548
14;549
15;550
0;550
1;551
2;551
3;550
4;550
5;549
6;547
7;547
8;545
9;545
10;543
11;543
12;544
13;545
14;545
15;545
0;547
1;548
2;548
3;546
4;545
5;543
6;540
7;537
8;531
9;531
10;529
11;530
12;531
13;526
14;519
15;516
0;517
1;519
2;523
3;528
4;529
5;528
6;527
7;530
8;534
9;531
10;526
11;521
12;518
13;518
14;522
15;524
0;521
1;517
2;510
3;499
4;488
5;481
6;479
7;481
8;492
9;505
10;517
11;530
12;543
13;553
14;563
15;572
0;578
1;587
2;599
3;614
4;625
5;627
6;619
7;608
8;603
9;596
10;590
11;589
12;590
13;590
14;590
15;589
0;584
1;579
2;579
3;579
4;576
5;569
6;560
7;554
8;549
9;543
10;541
11;539
12;536
13;534
14;531
15;530
0;531
1;531
2;528
3;527
4;528
5;531
6;529
7;525
8;523
9;526
10;529
11;532
12;534
13;533
14;534
15;534
0;534
1;532
2;529
3;528
4;531
5;531
6;534
7;537
8;536
9;535
10;534
11;534
12;532
13;531
14;527
15;523
0;520
1;521
2;518
3;517
4;518
5;520
6;530
7;540
8;547
9;550
10;550
11;547
12;544
13;540
14;538
15;535
0;534
1;534
2;536
3;533
4;533
5;535
6;533
7;531
8;527
9;523
10;520
11;519
12;519
13;517
14;512
15;508
0;509
1;511
2;514
3;518
4;522
5;528
6;532
7;535
8;536
9;534
10;527
11;521
12;518
13;512
14;513
15;518
0;519
1;520
2;523
3;524
4;523
5;521
6;519
7;519
8;520
9;520
10;519
11;518
12;517
13;516
14;513
15;509
0;506
1;503
2;504
3;509
4;513
5;516
6;517
7;518
8;518
9;516
10;513
11;512
12;514
13;516
14;518
15;519
0;518
1;521
2;522
3;517
4;512
5;508
6;507
7;513
8;520
9;524
10;524
11;523
12;520
13;517
14;515
15;515
0;514
1;518
2;522
3;524
4;523
5;522
6;522
7;523
8;526
9;528
10;526
11;522
12;518
13;513
14;510
15;506
0;506
1;512
2;516
3;522
4;530
5;528
6;526
7;521
8;522
9;526
10;534
11;538
12;539
13;536
14;532
15;526
0;520
1;520
2;521
3;516
4;516
5;519
6;521
7;520
8;519
9;517
10;515
11;511
12;512
13;519
14;522
15;523
0;520
1;520
2;523
3;521
4;517
5;517
6;514
7;512
8;512
9;514
10;518
11;523
12;525
13;527
14;525
15;522
0;519
1;515
2;514
3;515
4;517
5;514
6;514
7;516
8;515
9;515
10;512
11;514
12;515
13;515
14;514
15;512
0;511
1;511
2;509
3;507
4;504
5;504
6;501
7;499
8;498
9;499
10;499
11;500
12;500
13;501
14;502
15;502
0;502
1;500
2;500
3;500
4;498
5;494
6;492
7;492
8;490
9;491
10;496
11;495
12;495
13;499
14;504
15;499
0;489
1;482
2;480
3;481
4;479
5;473
6;476
7;480
8;491
9;497
10;502
11;515
12;531
13;532
14;531
15;531
0;530
1;523
2;518
3;515
4;510
5;504
6;501
7;498
8;496
9;497
10;502
11;500
12;498
13;496
14;495
15;495
0;493
1;489
2;485
3;486
4;482
5;476
6;471
7;469
8;465
9;464
10;465
11;467
12;466
13;467
14;474
15;481
0;484
1;487
2;487
3;486
4;484
5;483
6;483
7;482
8;485
9;487
10;488
11;491
12;493
13;494
14;492
15;492
0;490
1;488
2;488
3;488
4;487
5;484
6;482
7;482
8;483
9;487
10;492
11;498
12;501
13;499
14;498
15;499
0;500
1;499
2;494
3;487
4;480
5;477
6;474
7;472
8;486
9;505
10;513
11;517
12;519
13;519
14;518
15;516
0;515
1;513
2;512
3;512
4;511
5;510
6;507
7;507
8;507
9;505
10;504
11;501
12;499
13;497
14;495
15;492
0;487
1;485
2;480
3;475
4;476
5;480
6;482
7;486
8;490
9;494
10;494
11;495
12;499
13;501
14;503
15;502
0;503
1;502
2;499
3;495
4;490
5;486
6;486
7;487
8;490
9;488
10;483
11;480
12;477
13;476
14;480
15;480
0;480
1;480
2;478
3;479
4;483
5;485
6;484
7;483
8;482
9;483
10;483
11;483
12;487
13;489
14;485
15;478
0;472
1;468
2;468
3;465
4;464
5;466
6;472
7;476
8;475
9;473
10;473
11;476
12;478
13;477
14;477
15;480
0;482
1;483
2;483
3;484
4;485
5;484
6;484
7;484
8;484
9;482
10;478
11;474
12;474
13;473
14;471
15;472
0;474
1;475
2;478
3;480
4;481
5;478
6;473
7;470
8;471
9;470
10;470
11;470
12;470
13;471
14;472
15;475
0;481
1;481
2;483
3;481
4;476
5;475
6;483
7;489
8;496
9;502
10;507
11;507
12;509
13;508
14;502
15;497
0;500
1;504
2;502
3;502
4;500
5;497
6;491
7;486
8;482
9;478
10;472
11;467
12;466
13;465
14;464
15;462
0;460
1;462
2;463
3;463
4;465
5;466
6;467
7;467
8;464
9;462
10;459
11;458
12;456
13;452
14;450
15;451
0;451
1;450
2;449
3;450
4;451
5;449
6;448
7;450
8;450
9;450
10;448
11;444
12;441
13;439
14;436
15;433
0;433
1;434
2;433
3;432
4;432
5;427
6;425
7;425
8;425
9;427
10;431
11;440
12;449
13;453
14;450
15;443
0;444
1;443
2;443
3;442
4;439
5;439
6;445
7;452
8;459
9;463
10;472
11;480
12;482
13;482
14;479
15;477
0;475
1;471
2;469
3;467
4;465
5;460
6;454
7;449
8;445
9;449
10;457
11;464
12;471
13;476
14;477
15;474
0;471
1;469
2;470
3;472
4;472
5;469
6;470
7;470
8;471
9;471
10;473
11;476
12;475
13;474
14;472
15;470
0;471
1;471
2;472
3;469
4;465
5;464
6;458
7;450
8;445
9;443
10;445
11;453
12;462
13;471
14;479
15;489
0;499
1;507
2;513
3;523
4;531
5;534
6;544
7;554
8;560
9;561
10;557
11;550
12;542
13;531
14;525
15;520
0;524
1;535
2;552
3;567
4;572
5;564
6;554
7;544
8;536
9;526
10;517
11;511
12;508
13;507
14;509
15;509
0;504
1;503
2;507
3;514
4;518
5;515
6;506
7;496
8;486
9;476
10;469
11;467
12;472
13;477
14;481
15;483
0;484
1;487
2;488
3;487
4;488
5;491
6;495
7;496
8;497
9;497
10;499
11;502
12;506
13;507
14;507
15;507
0;504
1;500
2;497
3;493
4;487
5;483
6;482
7;483
8;488
9;494
10;499
11;501
12;506
13;508
14;502
15;501
0;500
1;497
2;498
3;497
4;499
5;495
6;492
7;490
8;495
9;500
10;497
11;491
12;489
13;494
14;496
15;495
0;499
1;501
2;505
3;514
4;524
5;529
6;528
7;524
8;515
9;511
10;507
11;504
12;506
13;512
14;519
15;523
0;518
1;516
2;526
3;536
4;541
5;544
6;542
7;536
8;526
9;519
10;512
11;512
12;514
13;516
14;518
15;517
0;519
1;524
2;528
3;531
4;533
5;532
6;528
7;524
8;523
9;519
10;520
11;519
12;512
13;509
14;507
15;504
0;500
1;499
2;505
3;509
4;508
5;506
6;502
7;500
8;496
9;492
10;498
11;514
12;533
13;542
14;549
15;547
0;542
1;533
2;520
3;513
4;515
5;512
6;516
7;527
8;531
9;526
10;518
11;514
12;511
13;513
14;513
15;511
0;507
1;505
2;509
3;512
4;512
5;512
6;512
7;509
8;507
9;512
10;514
11;513
12;510
13;502
14;493
15;492
0;494
1;498
2;500
3;502
4;502
5;497
6;494
7;492
8;494
9;496
10;497
11;500
12;499
13;496
14;492
15;496
0;503
1;515
2;521
3;518
4;508
5;494
6;482
7;477
8;478
9;494
10;512
11;527
12;526
13;521
14;520
15;527
0;530
1;533
2;535
3;534
4;536
5;535
6;526
7;526
8;530
9;525
10;522
11;519
12;515
13;513
14;512
15;512
0;518
1;526
2;536
3;540
4;542
5;540
6;537
7;530
8;523
9;514
10;502
11;489
12;481
13;477
14;484
15;499
0;508
1;507
2;505
3;507
4;509
5;511
6;515
7;521
8;527
9;532
10;534
11;536
12;532
13;534
14;538
15;538
0;536
1;536
2;536
3;532
4;532
5;536
6;540
7;540
8;535
9;532
10;532
11;532
12;531
13;529
14;527
15;521
0;515
1;516
2;520
3;519
4;520
5;515
6;509
7;508
8;509
9;510
10;514
11;522
12;526
13;522
14;513
15;510
0;512
1;515
2;517
3;517
4;516
5;514
6;512
7;515
8;520
9;518
10;516
11;517
12;521
13;524
14;527
15;525
0;521
1;519
2;521
3;523
4;527
5;536
6;540
7;540
8;536
9;533
10;530
11;524
12;517
13;515
14;516
15;515
0;521
1;528
2;532
3;537
4;540
5;542
6;540
7;542
8;545
9;546
10;543
11;537
12;531
13;532
14;532
15;528
0;522
1;516
2;522
3;527
4;527
5;524
6;525
7;524
8;530
9;543
10;556
11;559
12;549
13;540
14;541
15;541
0;538
1;535
2;534
3;532
4;528
5;519
6;514
7;509
8;507
9;513
10;521
11;531
12;536
13;540
14;542
15;541
0;534
1;521
2;511
3;507
4;514
5;522
6;524
7;521
8;521
9;524
10;527
11;531
12;533
13;536
14;531
15;534
0;536
1;540
2;543
3;542
4;537
5;534
6;533
7;528
8;523
9;520
10;519
11;519
12;517
13;516
14;516
15;516
0;517
1;516
2;516
3;518
4;523
5;527
6;527
7;524
8;519
9;518
10;518
11;517
12;518
13;520
14;522
15;524
0;522
1;519
2;515
3;514
4;514
5;513
6;515
7;517
8;519
9;524
10;528
11;533
12;535
13;530
14;522
15;520
0;511
1;505
2;511
3;516
4;526
5;533
6;531
7;528
8;531
9;529
10;526
11;528
12;532
13;534
14;531
15;527
0;528
1;530
2;531
3;531
4;531
5;529
6;526
7;522
8;519
9;515
10;517
11;517
12;516
13;518
14;518
15;517
0;515
1;515
2;518
3;516
4;517
5;519
6;518
7;511
8;504
9;495
10;485
11;476
12;468
13;461
14;451
15;441
0;437
1;442
2;451
3;467
4;479
5;483
6;487
7;493
8;493
9;497
10;509
11;520
12;531
13;538
14;539
15;535
0;531
1;527
2;524
3;526
4;528
5;529
6;529
7;529
8;526
9;523
10;522
11;519
12;517
13;518
14;520
15;520
0;520
1;521
2;523
3;524
4;522
5;519
6;517
7;514
8;514
9;517
10;517
11;515
12;515
13;517
14;518
15;520
0;523
1;523
2;522
3;520
4;519
5;518
6;518
7;518
8;520
9;521
10;519
11;518
12;519
13;519
14;523
15;532
0;539
1;541
2;537
3;534
4;534
5;531
6;530
7;531
8;534
9;538
10;538
11;536
12;535
13;536
14;539
15;539
0;537
1;536
2;539
3;544
4;544
5;541
6;541
7;544
8;546
9;547
10;547
11;544
12;539
13;533
14;526
15;518
0;514
1;510
2;507
3;501
4;495
5;491
6;494
7;504
8;513
9;523
10;527
11;530
12;529
13;528
14;526
15;525
0;527
1;533
2;536
3;542
4;557
5;571
6;583
7;595
8;607
9;616
10;623
11;634
12;643
13;647
14;644
15;635
0;628
1;623
2;623
3;620
4;617
5;621
6;621
7;620
8;619
9;612
10;604
11;595
12;583
13;572
14;565
15;563
0;557
1;550
2;542
3;545
4;549
5;551
6;553
7;553
8;549
9;547
10;541
11;532
12;526
13;526
14;528
15;527
0;521
1;515
2;511
3;506
4;498
5;491
6;484
7;474
8;463
9;455
10;456
11;469
12;486
13;503
14;514
15;523
0;534
1;548
2;563
3;575
4;589
5;593
6;579
7;557
8;538
9;538
10;548
11;558
12;565
13;567
14;570
15;571
0;568
1;565
2;561
3;559
4;555
5;549
6;543
7;537
8;530
9;531
10;534
11;533
12;530
13;526
14;527
15;531
0;542
1;553
2;563
3;563
4;561
5;561
6;563
7;566
8;566
9;564
10;563
11;566
12;567
13;563
14;558
15;560
0;558
1;553
2;553
3;552
4;551
5;551
6;551
7;550
8;548
9;542
10;530
11;522
12;518
13;518
14;523
15;523
0;524
1;528
2;537
3;547
4;552
5;567
6;579
7;583
8;586
9;586
10;591
11;591
12;587
13;582
14;578
15;579
0;584
1;591
2;591
3;582
4;571
5;557
6;545
7;534
8;528
9;535
10;552
11;565
12;571
13;574
14;574
15;574
0;570
1;566
2;566
3;564
4;563
5;563
6;564
7;568
8;576
9;586
10;596
11;608
12;610
13;606
14;599
15;592
0;585
1;575
2;568
3;562
4;562
5;567
6;571
7;572
8;573
9;572
10;573
11;571
12;570
13;571
14;567
15;567
0;567
1;568
2;569
3;571
4;568
5;565
6;563
7;560
8;555
9;552
10;549
11;551
12;557
13;565
14;568
15;572
0;573
1;572
2;571
3;574
4;577
5;579
6;575
7;568
8;563
9;565
10;569
11;576
12;578
13;584
14;594
15;595
0;586
1;575
2;568
3;568
4;570
5;571
6;571
7;567
8;560
9;555
10;552
11;551
12;552
13;551
14;553
15;558
0;561
1;560
2;560
3;559
4;555
5;551
6;551
7;551
8;554
9;561
10;564
11;564
12;561
13;551
14;545
15;540
0;536
1;535
2;537
3;540
4;537
5;537
6;541
7;552
8;567
9;575
10;577
11;580
12;584
13;583
14;575
15;565
0;554
1;547
2;543
3;536
4;534
5;530
6;525
7;521
8;519
9;518
10;517
11;516
12;514
13;512
14;510
15;509
0;513
1;515
2;517
3;520
4;522
5;523
6;519
7;514
8;508
9;503
10;503
11;501
12;499
13;500
14;503
15;501
0;500
1;499
2;496
3;496
4;503
5;511
6;517
7;522
8;525
9;526
10;524
11;524
12;522
13;514
14;505
15;509
0;521
1;538
2;549
3;556
4;560
5;560
6;559
7;560
8;559
9;554
10;539
11;524
12;515
13;516
14;519
15;514
0;512
1;514
2;518
3;522
4;524
5;526
6;529
7;531
8;534
9;534
10;533
11;530
12;528
13;526
14;524
15;524
0;525
1;524
2;522
3;521
4;520
5;519
6;519
7;517
8;513
9;509
10;505
11;506
12;509
13;514
14;516
15;515
0;515
1;515
2;510
3;504
4;502
5;504
6;508
7;506
8;501
9;497
10;497
11;504
12;505
13;504
14;504
15;509
0;515
1;515
2;513
3;512
4;511
5;512
6;513
7;513
8;513
9;513
10;514
11;516
12;517
13;511
14;503
15;499
0;495
1;494
2;489
3;483
4;482
5;480
6;476
7;478
8;484
9;491
10;495
11;499
12;498
13;497
14;497
15;495
0;496
1;499
2;505
3;510
4;512
5;512
6;509
7;502
8;496
9;496
10;496
11;494
12;496
13;500
14;502
15;504
0;507
1;512
2;517
3;520
4;518
5;515
6;516
7;514
8;511
9;510
10;504
11;499
12;496
13;497
14;499
15;497
0;495
1;493
2;490
3;489
4;488
5;489
6;487
7;483
8;479
9;473
10;473
11;478
12;481
13;484
14;487
15;485
0;484
1;483
2;483
3;478
4;471
5;461
6;456
7;457
8;460
9;466
10;480
11;488
12;489
13;484
14;488
15;492
0;489
1;480
2;478
3;480
4;480
5;476
6;473
7;475
8;474
9;475
10;475
11;478
12;475
13;466
14;455
15;445
0;444
1;448
2;448
3;441
4;441
5;447
6;448
7;451
8;450
9;445
10;442
11;443
12;446
13;448
14;447
15;445
0;443
1;441
2;438
3;438
4;437
5;436
6;438
7;443
8;448
9;451
10;451
11;448
12;446
13;444
14;441
15;443
0;445
1;448
2;454
3;461
4;465
5;466
6;469
7;470
8;469
9;467
10;467
11;468
12;471
13;472
14;468
15;465
0;462
1;463
2;466
3;465
4;464
5;463
6;460
7;458
8;453
9;450
10;449
11;448
12;447
13;447
14;445
15;441
0;436
1;439
2;440
3;435
4;432
5;434
6;436
7;439
8;441
9;443
10;444
11;447
12;450
13;455
14;469
15;482
0;492
1;503
2;513
3;524
4;538
5;553
6;575
7;598
8;610
9;609
10;604
11;599
12;593
13;588
14;576
15;568
0;564
1;561
2;556
3;551
4;546
5;538
6;528
7;519
8;509
9;500
10;493
11;491
12;487
13;479
14;471
15;461
0;453
1;445
2;433
3;424
4;424
5;428
6;438
7;448
8;451
9;450
10;450
11;448
12;448
13;449
14;451
15;454
0;455
1;455
2;455
3;452
4;448
5;446
6;448
7;452
8;452
9;448
10;449
11;454
12;462
13;467
14;471
15;474
0;475
1;477
2;480
3;486
4;492
5;495
6;494
7;497
8;497
9;495
10;496
11;494
12;492
13;494
14;492
15;490
0;494
1;495
2;492
3;493
4;493
5;494
6;499
7;500
8;500
9;503
10;505
11;503
12;508
13;509
14;502
15;499
0;504
1;508
2;509
3;506
4;502
5;495
6;492
7;492
8;490
9;489
10;487
11;486
12;482
13;482
14;486
15;488
0;493
1;494
2;494
3;498
4;499
5;497
6;497
7;494
8;492
9;500
10;507
11;510
12;510
13;510
14;508
15;505
0;504
1;504
2;506
3;502
4;500
5;505
6;510
7;515
8;517
9;515
10;515
11;518
12;524
13;528
14;528
15;528
0;525
1;525
2;523
3;521
4;520
5;518
6;513
7;508
8;507
9;507
10;507
11;505
12;505
13;508
14;516
15;522
0;523
1;523
2;522
3;519
4;511
5;504
6;500
7;499
8;506
9;516
10;530
11;539
12;539
13;540
14;543
15;543
0;537
1;531
2;527
3;521
4;519
5;519
6;523
7;524
8;524
9;522
10;519
11;517
12;516
13;514
14;512
15;509
0;508
1;507
2;505
3;507
4;509
5;509
6;507
7;505
8;502
9;498
10;497
11;495
12;493
13;494
14;500
15;502
0;503
1;501
2;502
3;504
4;504
5;504
6;502
7;504
8;507
9;507
10;506
11;499
12;490
13;484
14;483
15;484
0;489
1;498
2;507
3;512
4;512
5;509
6;503
7;498
8;500
9;501
10;499
11;497
12;492
13;494
14;499
15;501
0;499
1;496
2;494
3;495
4;496
5;497
6;497
7;494
8;486
9;478
10;474
11;471
12;477
13;483
14;485
15;487
0;488
1;491
2;493
3;493
4;493
5;489
6;487
7;484
8;481
9;477
10;472
11;467
12;465
13;467
14;467
15;464
0;461
1;461
2;463
3;467
4;467
5;465
6;463
7;460
8;457
9;453
10;451
11;449
12;447
13;450
14;455
15;460
0;463
1;463
2;463
3;467
4;466
5;463
6;465
7;474
8;480
9;483
10;486
11;486
12;486
13;484
14;478
15;472
0;471
1;476
2;484
3;493
4;496
5;496
6;503
7;505
8;503
9;498
10;494
11;490
12;489
13;492
14;494
15;494
0;491
1;488
2;489
3;491
4;492
5;496
6;500
7;500
8;499
9;498
10;495
11;491
12;492
13;496
14;495
15;491
0;487
1;487
2;487
3;487
4;495
5;502
6;501
7;498
8;497
9;498
10;496
11;496
12;495
13;494
14;492
15;489
0;491
1;495
2;497
3;499
4;500
5;500
6;502
7;502
8;503
9;502
10;500
11;494
12;487
13;487
14;487
15;485
0;481
1;481
2;487
3;493
4;499
5;500
6;499
7;499
8;506
9;509
10;510
11;508
12;506
13;508
14;508
15;505
0;500
1;495
2;493
3;496
4;501
5;501
6;500
7;501
8;504
9;508
10;509
11;512
12;516
13;519
14;517
15;512
0;510
1;508
2;507
3;506
4;506
5;509
6;509
7;509
8;516
9;516
10;514
11;513
12;513
13;511
14;508
15;511
0;516
1;519
2;520
3;516
4;512
5;507
6;504
7;507
8;510
9;507
10;503
11;503
12;502
13;500
14;499
15;495
0;493
1;498
2;506
3;510
4;512
5;513
6;516
7;518
8;520
9;519
10;516
11;514
12;512
13;514
14;517
15;517
0;515
1;511
2;505
3;504
4;503
5;503
6;504
7;508
8;510
9;512
10;514
11;515
12;513
13;511
14;510
15;510
0;513
1;512
2;510
3;508
4;511
5;514
6;516
7;517
8;518
9;518
10;521
11;526
12;521
13;519
14;522
15;525
0;527
1;526
2;521
3;515
4;509
5;502
6;499
7;497
8;495
9;494
10;493
11;493
12;493
13;492
14;489
15;486
0;483
1;480
2;478
3;478
4;477
5;479
6;481
7;484
8;486
9;489
10;490
11;488
12;487
13;485
14;483
15;477
0;476
1;476
2;475
3;478
4;481
5;482
6;477
7;471
8;465
9;458
10;456
11;460
12;460
13;456
14;450
15;444
0;440
1;439
2;442
3;446
4;447
5;443
6;439
7;445
8;454
9;456
10;451
11;447
12;450
13;454
14;453
15;455
0;456
1;455
2;454
3;453
4;453
5;449
6;446
7;441
8;438
9;439
10;443
11;449
12;454
13;455
14;454
15;456
0;459
1;458
2;456
3;456
4;456
5;453
6;446
7;437
8;436
9;439
10;443
11;448
12;450
13;450
14;448
15;447
0;445
1;445
2;448
3;454
4;458
5;457
6;454
7;451
8;448
9;444
10;439
11;435
12;433
13;433
14;432
15;429
0;426
1;421
2;414
3;414
4;412
5;414
6;418
7;418
8;418
9;419
10;417
11;413
12;405
13;402
14;401
15;402
0;404
1;403
2;401
3;404
4;412
5;421
6;434
7;451
8;463
9;476
10;491
11;501
12;512
13;527
14;538
15;542
0;539
1;536
2;531
3;525
4;523
5;520
6;513
7;507
8;504
9;500
10;498
11;496
12;492
13;489
14;483
15;474
0;464
1;459
2;456
3;451
4;446
5;442
6;439
7;433
8;435
9;442
10;449
11;451
12;448
13;439
14;433
15;428
0;423
1;422
2;421
3;420
4;422
5;425
6;431
7;438
8;449
9;461
10;461
11;448
12;436
13;430
14;430
15;425
0;427
1;435
2;443
3;446
4;444
5;444
6;445
7;440
8;434
9;436
10;446
11;453
12;456
13;455
14;452
15;447
0;449
1;452
2;455
3;457
4;461
5;459
6;460
7;467
8;471
9;468
10;465
11;462
12;460
13;460
14;459
15;458
0;460
1;462
2;460
3;459
4;460
5;457
6;454
7;452
8;452
9;451
10;454
11;456
12;457
13;456
14;454
15;453
0;453
1;453
2;455
3;457
4;458
5;462
6;460
7;458
8;456
9;456
10;458
11;459
12;459
13;459
14;462
15;466
0;470
1;469
2;466
3;465
4;462
5;457
6;455
7;454
8;450
9;448
10;449
11;447
12;448
13;450
14;452
15;450
0;445
1;441
2;435
3;435
4;441
5;446
6;449
7;451
8;454
9;457
10;460
11;459
12;459
13;457
14;460
15;462
0;464
1;465
2;465
3;471
4;474
5;474
6;472
7;471
8;470
9;470
10;472
11;473
12;476
13;480
14;483
15;486
0;482
1;480
2;484
3;488
4;489
5;488
6;487
7;481
8;473
9;469
10;466
11;465
12;464
13;464
14;466
15;467
0;464
1;460
2;461
3;463
4;460
5;459
6;460
7;468
8;480
9;489
10;491
11;490
12;489
13;483
14;475
15;470
0;471
1;476
2;480
3;487
4;495
5;500
6;507
7;512
8;512
9;507
10;502
11;501
12;501
13;501
14;500
15;496
0;492
1;489
2;489
3;492
4;494
5;495
6;496
7;496
8;495
9;493
10;492
11;491
12;492
13;494
14;492
15;492
0;491
1;491
2;487
3;481
4;478
5;471
6;466
7;467
8;474
9;480
10;480
11;479
12;480
13;487
14;493
15;497
0;498
1;498
2;501
3;503
4;503
5;503
6;500
7;497
8;495
9;493
10;497
11;502
12;503
13;501
14;498
15;498
0;500
1;498
2;496
3;496
4;493
5;491
6;489
7;487
8;484
9;482
10;485
11;486
12;487
13;491
14;493
15;494
0;495
1;499
2;497
3;493
4;496
5;500
6;499
7;497
8;498
9;499
10;501
11;501
12;501
13;502
14;505
15;505
0;507
1;508
2;505
3;502
4;501
5;505
6;504
7;501
8;505
9;513
10;518
11;517
12;514
13;514
14;514
15;513
0;511
1;510
2;509
3;508
4;506
5;505
6;504
7;506
8;508
9;509
10;510
11;511
12;511
13;508
14;500
15;497
0;500
1;504
2;506
3;513
4;519
5;522
6;529
7;533
8;532
9;527
10;520
11;515
12;516
13;521
14;528
15;531
0;532
1;532
2;533
3;535
4;536
5;533
6;532
7;531
8;531
9;531
10;531
11;533
12;536
13;534
14;531
15;532
0;531
1;529
2;529
3;528
4;529
5;527
6;527
7;526
8;524
9;523
10;524
11;527
12;530
13;532
14;534
15;535
0;539
1;542
2;541
3;541
4;540
5;542
6;543
7;542
8;540
9;536
10;530
11;527
12;526
13;529
14;534
15;539
0;544
1;549
2;551
3;549
4;546
5;545
6;544
7;542
8;535
9;531
10;534
11;537
12;539
13;540
14;543
15;544
0;546
1;549
2;547
3;546
4;547
5;545
6;544
7;542
8;541
9;543
10;542
11;541
12;540
13;537
14;535
15;533
0;536
1;537
2;537
3;536
4;536
5;536
6;536
7;536
8;538
9;538
10;538
11;536
12;538
13;538
14;538
15;542
0;544
1;541
2;539
3;538
4;537
5;536
6;534
7;531
8;528
9;526
10;524
11;522
12;523
13;525
14;527
15;528
0;529
1;530
2;531
3;533
4;534
5;535
6;535
7;533
8;529
9;528
10;532
11;535
12;534
13;530
14;530
15;532
0;535
1;539
2;543
3;544
4;545
5;541
6;534
7;535
8;539
9;537
10;533
11;534
12;539
13;541
14;542
15;541
0;544
1;553
2;552
3;550
4;551
5;553
6;553
7;553
8;553
9;551
10;550
11;549
12;548
13;545
14;536
15;525
0;515
1;510
2;518
3;532
4;546
5;554
6;559
7;563
8;564
9;559
10;557
11;555
12;549
13;546
14;546
15;546
0;544
1;543
2;543
3;545
4;545
5;542
6;540
7;540
8;539
9;539
10;539
11;536
12;531
13;527
14;524
15;523
0;523
1;526
2;525
3;527
4;530
5;530
6;528
7;527
8;523
9;520
10;518
11;517
12;515
13;513
14;510
15;510
0;509
1;507
2;505
3;510
4;514
5;512
6;510
7;512
8;512
9;511
10;509
11;507
12;508
13;506
14;502
15;498
0;500
1;504
2;503
3;500
4;499
5;500
6;503
7;506
8;509
9;512
10;512
11;511
12;511
13;507
14;502
15;499
0;497
1;497
2;496
3;495
4;494
5;493
6;495
7;493
8;492
9;494
10;493
11;496
12;500
13;499
14;495
15;495
0;496
1;499
2;498
3;495
4;493
5;490
6;487
7;487
8;488
9;492
10;494
11;497
12;504
13;510
14;518
15;527
0;536
1;546
2;558
3;571
4;584
5;600
6;612
7;616
8;614
9;606
10;599
11;595
12;591
13;582
14;572
15;566
0;563
1;559
2;557
3;554
4;552
5;547
6;536
7;532
8;528
9;526
10;529
11;538
12;544
13;542
14;538
15;534
0;525
1;517
2;511
3;505
4;501
5;499
6;501
7;501
8;500
9;500
10;500
11;500
12;500
13;500
14;498
15;497
0;497
1;496
2;495
3;496
4;501
5;507
6;509
7;508
8;505
9;504
10;502
11;496
12;492
13;494
14;494
15;498
0;506
1;516
2;519
3;519
4;517
5;516
6;514
7;510
8;506
9;506
10;509
11;513
12;513
13;516
14;518
15;512
0;508
1;507
2;501
3;499
4;497
5;496
6;496
7;496
8;497
9;500
10;502
11;503
12;499
13;496
14;496
15;497
0;499
1;498
2;497
3;494
4;496
5;499
6;502
7;504
8;505
9;506
10;507
11;506
12;507
13;507
14;503
15;495
0;487
1;486
2;485
3;485
4;486
5;491
6;500
7;504
8;504
9;504
10;505
11;505
12;503
13;503
14;504
15;505
0;506
1;504
2;500
3;499
4;496
5;497
6;496
7;496
8;500
9;504
10;504
11;506
12;504
13;501
14;499
15;497
0;502
1;505
2;505
3;503
4;504
5;506
6;506
7;511
8;513
9;516
10;519
11;517
12;514
13;512
14;507
15;501
0;498
1;499
2;502
3;508
4;510
5;512
6;514
7;511
8;509
9;508
10;505
11;504
12;504
13;506
14;508
15;511
0;515
1;516
2;518
3;518
4;519
5;518
6;515
7;512
8;509
9;507
10;507
11;507
12;509
13;510
14;512
15;514
0;517
1;520
2;520
3;520
4;517
5;517
6;518
7;517
8;516
9;515
10;513
11;512
12;513
13;515
14;520
15;523
0;522
1;522
2;523
3;523
4;527
5;529
6;526
7;522
8;517
9;516
10;516
11;515
12;516
13;515
14;518
15;520
0;521
1;520
2;521
3;523
4;524
5;524
6;528
7;531
8;533
9;535
10;534
11;535
12;535
13;533
14;532
15;531
0;530
1;528
2;526
3;521
4;517
5;532
6;552
7;566
8;569
9;572
10;577
11;576
12;572
13;567
14;562
15;559
0;558
1;558
2;558
3;555
4;550
5;548
6;547
7;550
8;550
9;545
10;542
11;543
12;546
13;547
14;549
15;552
0;547
1;545
2;546
3;548
4;556
5;563
6;565
7;563
8;561
9;558
10;553
11;550
12;551
13;551
14;547
15;546
0;545
1;544
2;547
3;549
4;549
5;555
6;557
7;558
8;556
9;554
10;553
11;551
12;552
13;555
14;560
15;564
0;570
1;571
2;571
3;569
4;568
5;571
6;574
7;574
8;574
9;574
10;574
11;572
12;569
13;568
14;569
15;569
0;576
1;582
2;580
3;579
4;578
5;574
6;572
7;572
8;574
9;575
10;574
11;573
12;569
13;565
14;566
15;564
0;560
1;558
2;558
3;558
4;561
5;568
6;571
7;571
8;568
9;566
10;566
11;563
12;562
13;562
14;566
15;569
0;568
1;569
2;572
3;571
4;567
5;565
6;563
7;558
8;556
9;554
10;556
11;556
12;555
13;557
14;561
15;562
0;560
1;560
2;560
3;559
4;557
5;561
6;562
7;565
8;569
9;572
10;576
11;579
12;580
13;576
14;574
15;573
0;570
1;566
2;569
3;576
4;577
5;574
6;571
7;569
8;571
9;571
10;569
11;569
12;567
13;562
14;560
15;562
0;561
1;560
2;564
3;564
4;558
5;556
6;557
7;554
8;549
9;550
10;554
11;553
12;550
13;545
14;540
15;541
0;543
1;543
2;539
3;537
4;538
5;538
6;534
7;528
8;527
9;533
10;537
11;535
12;538
13;543
14;544
15;542
0;538
1;533
2;523
3;515
4;508
5;505
6;506
7;509
8;513
9;515
10;516
11;518
12;519
13;516
14;515
15;513
0;512
1;510
2;508
3;508
4;512
5;515
6;514
7;518
8;526
9;526
10;527
11;528
12;527
13;526
14;521
15;518
0;516
1;517
2;518
3;519
4;519
5;516
6;512
7;511
8;511
9;512
10;513
11;515
12;514
13;512
14;513
15;519
0;522
1;520
2;516
3;513
4;512
5;513
6;515
7;514
8;514
9;514
10;516
11;518
12;519
13;521
14;522
15;520
0;518
1;517
2;515
3;511
4;509
5;511
6;513
7;514
8;516
9;518
10;521
11;523
12;527
13;529
14;527
15;520
0;514
1;511
2;509
3;511
4;519
5;527
6;527
7;523
8;520
9;520
10;521
11;518
12;518
13;524
14;523
15;517
0;514
1;515
2;517
3;515
4;512
5;511
6;507
7;502
8;497
9;494
10;495
11;498
12;499
13;500
14;497
15;492
0;490
1;494
2;499
3;501
4;501
5;499
6;495
7;491
8;486
9;483
10;487
11;489
12;486
13;480
14;478
15;479
0;477
1;477
2;479
3;489
4;498
5;498
6;494
7;488
8;485
9;482
10;483
11;483
12;486
13;489
14;491
15;493
0;493
1;490
2;489
3;489
4;487
5;485
6;482
7;482
8;484
9;487
10;489
11;490
12;492
13;489
14;487
15;486
0;485
1;481
2;476
3;476
4;477
5;478
6;477
7;481
8;484
9;484
10;484
11;487
12;486
13;481
14;480
15;485
0;492
1;494
2;491
3;486
4;484
5;487
6;494
7;492
8;489
9;487
10;483
11;480
12;477
13;476
14;479
15;486
0;493
1;494
2;492
3;492
4;493
5;493
6;492
7;493
8;491
9;492
10;488
11;487
12;486
13;486
14;490
15;492
0;493
1;492
2;492
3;493
4;491
5;489
6;488
7;487
8;487
9;486
10;486
11;482
12;480
13;479
14;480
15;484
0;491
1;498
2;507
3;516
4;523
5;532
6;540
7;548
8;559
9;573
10;587
11;594
12;593
13;588
14;581
15;575
0;574
1;571
2;564
3;560
4;556
5;552
6;552
7;548
8;541
9;536
10;529
11;524
12;516
13;507
14;499
15;496
0;495
1;492
2;490
3;490
4;488
5;489
6;489
7;489
8;490
9;492
10;492
11;493
12;493
13;491
14;490
15;492
0;490
1;487
2;488
3;491
4;495
5;499
6;500
7;502
8;508
9;510
10;509
11;514
12;519
13;525
14;527
15;528
0;526
1;524
2;522
3;521
4;519
5;519
6;523
7;524
8;528
9;531
10;532
11;530
12;526
13;523
14;527
15;533
0;534
1;535
2;540
3;541
4;542
5;543
6;541
7;540
8;536
9;539
10;545
11;543
12;538
13;534
14;531
15;529
0;526
1;527
2;526
3;526
4;527
5;529
6;529
7;531
8;538
9;540
10;537
11;535
12;533
13;531
14;529
15;530
0;533
1;535
2;534
3;532
4;533
5;535
6;536
7;539
8;538
9;534
10;531
11;527
12;522
13;518
14;516
15;517
0;518
1;519
2;522
3;526
4;531
5;533
6;534
7;534
8;531
9;533
10;539
11;543
12;544
13;545
14;545
15;542
0;537
1;534
2;533
3;533
4;534
5;536
6;539
7;541
8;545
9;547
10;549
11;548
12;545
13;547
14;549
15;547
0;544
1;540
2;539
3;539
4;539
5;539
6;536
7;534
8;529
9;525
10;527
11;534
12;537
13;539
14;541
15;543
0;542
1;543
2;543
3;543
4;545
5;551
6;558
7;556
8;549
9;546
10;546
11;550
12;561
13;570
14;573
15;574
0;573
1;567
2;559
3;552
4;548
5;549
6;551
7;551
8;552
9;547
10;540
11;538
12;535
13;532
14;531
15;535
0;541
1;545
2;548
3;547
4;544
5;545
6;545
7;540
8;537
9;541
10;545
11;546
12;546
13;546
14;545
15;544
0;543
1;542
2;540
3;540
4;539
5;537
6;536
7;534
8;535
9;531
10;525
11;521
12;523
13;525
14;528
15;531
0;533
1;537
2;536
3;531
4;527
5;529
6;527
7;525
8;522
9;521
10;528
11;533
12;537
13;540
14;539
15;536
0;530
1;524
2;521
3;517
4;513
5;507
6;507
7;507
8;507
9;505
10;503
11;503
12;501
13;499
14;496
15;493
0;495
1;497
2;497
3;495
4;498
5;502
6;504
7;506
8;505
9;503
10;498
11;495
12;494
13;496
14;503
15;504
0;503
1;500
2;496
3;492
4;490
5;485
6;488
7;499
8;504
9;505
10;504
11;506
12;507
13;504
14;505
15;502
0;497
1;498
2;502
3;503
4;507
5;512
6;515
7;514
8;516
9;518
10;519
11;519
12;518
13;524
14;525
15;519
0;515
1;510
2;507
3;503
4;501
5;498
6;497
7;496
8;496
9;496
10;502
11;506
12;509
13;509
14;508
15;508
0;510
1;514
2;515
3;512
4;513
5;511
6;505
7;502
8;506
9;508
10;508
11;512
12;515
13;517
14;517
15;517
0;515
1;512
2;513
3;512
4;508
5;504
6;504
7;505
8;507
9;507
10;508
11;508
12;511
13;514
14;519
15;524
0;523
1;520
2;520
3;517
4;513
5;505
6;502
7;511
8;513
9;511
10;510
11;514
12;517
13;520
14;523
15;524
0;523
1;521
2;519
3;515
4;513
5;513
6;512
7;511
8;508
9;504
10;504
11;505
12;510
13;512
14;505
15;500
0;498
1;500
2;500
3;498
4;496
5;493
6;492
7;492
8;494
9;492
10;488
11;487
12;487
13;484
14;482
15;481
0;481
1;481
2;477
3;476
4;476
5;475
6;475
7;476
8;475
9;470
10;470
11;472
12;470
13;471
14;472
15;476
0;481
1;481
2;480
3;480
4;481
5;481
6;478
7;477
8;481
9;481
10;480
11;477
12;473
13;472
14;470
15;472
0;472
1;473
2;474
3;475
4;475
5;478
6;483
7;480
8;472
9;469
10;472
11;474
12;471
13;470
14;474
15;477
0;482
1;487
2;487
3;488
4;487
5;488
6;493
7;502
8;510
9;515
10;511
11;501
12;491
13;485
14;486
15;491
0;495
1;503
2;503
3;495
4;488
5;486
6;488
7;494
8;496
9;494
10;492
11;491
12;488
13;485
14;483
15;486
0;488
1;492
2;492
3;495
4;499
5;502
6;505
7;507
8;511
9;515
10;515
11;515
12;513
13;513
14;513
15;513
0;513
1;513
2;515
3;517
4;518
5;524
6;527
7;527
8;528
9;527
10;527
11;525
12;524
13;524
14;525
15;526
0;525
1;524
2;523
3;525
4;526
5;525
6;525
7;523
8;521
9;521
10;520
11;521
12;523
13;524
14;524
15;526
0;528
1;530
2;531
3;531
4;531
5;527
6;527
7;528
8;526
9;524
10;525
11;523
12;522
13;524
14;529
15;528
0;523
1;521
2;519
3;516
4;516
5;518
6;516
7;517
8;518
9;519
10;519
11;519
12;521
13;520
14;522
15;524
0;524
1;523
2;519
3;516
4;514
5;513
6;512
7;513
8;514
9;518
10;524
11;526
12;523
13;523
14;524
15;522
0;519
1;514
2;514
3;514
4;512
5;512
6;513
7;517
8;519
9;518
10;516
11;514
12;516
13;520
14;520
15;519
0;514
1;511
2;509
3;509
4;513
5;520
6;525
7;525
8;523
9;515
10;510
11;514
12;514
13;512
14;513
15;517
0;518
1;510
2;504
3;507
4;510
5;513
6;515
7;515
8;514
9;514
10;519
11;523
12;524
13;524
14;527
15;528
0;526
1;523
2;520
3;521
4;521
5;518
6;513
7;511
8;510
9;511
10;515
11;517
12;520
13;522
14;524
15;525
0;524
1;523
2;521
3;521
4;520
5;519
6;515
7;511
8;508
9;505
10;506
11;505
12;502
13;499
14;497
15;494
0;496
1;497
2;499
3;501
4;500
5;495
6;485
7;478
8;475
9;478
10;484
11;492
12;503
13;514
14;528
15;543
0;551
1;561
2;569
3;572
4;580
5;592
6;600
7;596
8;587
9;583
10;579
11;573
12;568
13;561
14;554
15;555
0;558
1;559
2;560
3;554
4;544
5;537
6;529
7;522
8;522
9;526
10;529
11;529
12;526
13;520
14;518
15;520
0;521
1;519
2;519
3;512
4;511
5;511
6;507
7;500
8;493
9;486
10;487
11;493
12;499
13;503
14;505
15;503
0;503
1;506
2;510
3;511
4;512
5;514
6;519
7;523
8;523
9;521
10;520
11;520
12;516
13;515
14;516
15;516
0;516
1;518
2;516
3;512
4;511
5;511
6;508
7;507
8;507
9;505
10;504
11;504
12;503
13;502
14;503
15;505
0;506
1;510
2;513
3;513
4;511
5;510
6;511
7;511
8;511
9;508
10;505
11;503
12;499
13;495
14;496
15;496
0;495
1;498
2;501
3;503
4;503
5;503
6;499
7;496
8;495
9;494
10;493
11;496
12;498
13;501
14;503
15;506
0;508
1;511
2;512
3;512
4;511
5;512
6;513
7;511
8;508
9;503
10;499
11;497
12;494
13;489
14;492
15;498
0;497
1;499
2;501
3;500
4;503
5;510
6;510
7;507
8;504
9;503
10;505
11;513
12;516
13;517
14;514
15;509
0;508
1;505
2;500
3;496
4;497
5;504
6;509
7;517
8;519
9;518
10;516
11;512
12;512
13;514
14;515
15;515
0;514
1;512
2;513
3;516
4;518
5;518
6;519
7;521
8;524
9;524
10;519
11;515
12;510
13;504
14;503
15;505
0;504
1;505
2;504
3;504
4;508
5;512
6;512
7;511
8;512
9;514
10;515
11;515
12;514
13;514
14;514
15;513
0;516
1;515
2;515
3;514
4;512
5;513
6;515
7;512
8;508
9;509
10;510
11;506
12;503
13;504
14;508
15;512
0;518
1;523
2;524
3;525
4;523
5;521
6;521
7;517
8;512
9;508
10;504
11;504
12;503
13;502
14;503
15;501
0;496
1;493
2;495
3;498
4;500
5;503
6;505
7;508
8;507
9;509
10;512
11;513
12;511
13;509
14;507
15;503
0;503
1;505
2;508
3;510
4;509
5;508
6;504
7;503
8;503
9;506
10;505
11;503
12;500
13;500
14;499
15;496
0;493
1;491
2;495
3;502
4;512
5;519
6;523
7;523
8;525
9;527
10;530
11;528
12;523
13;518
14;515
15;513
0;511
1;508
2;508
3;509
4;509
5;510
6;512
7;512
8;512
9;513
10;513
11;512
12;512
13;512
14;511
15;509
0;505
1;501
2;498
3;498
4;503
5;509
6;513
7;515
8;516
9;518
10;520
11;521
12;519
13;515
14;512
15;508
0;505
1;506
2;506
3;503
4;501
5;503
6;508
7;511
8;511
9;511
10;517
11;520
12;524
13;525
14;524
15;527
0;522
1;516
2;516
3;519
4;523
5;527
6;527
7;528
8;526
9;525
10;524
11;523
12;523
13;525
14;526
15;525
0;524
1;525
2;525
3;526
4;524
5;522
6;522
7;522
8;522
9;524
10;524
11;523
12;522
13;519
14;519
15;522
0;526
1;526
2;524
3;526
4;527
5;527
6;525
7;523
8;523
9;525
10;526
11;524
12;524
13;525
14;526
15;527
0;526
1;527
2;523
3;526
4;530
5;531
6;530
7;530
8;531
9;531
10;531
11;534
12;534
13;535
14;537
15;535
0;534
1;534
2;533
3;531
4;530
5;529
6;529
7;528
8;525
9;523
10;520
11;514
12;516
13;524
14;532
15;532
0;524
1;517
2;518
3;524
4;529
5;530
6;527
7;525
8;521
9;523
10;521
11;518
12;517
13;516
14;515
15;517
0;517
1;514
2;511
3;511
4;511
5;512
6;515
7;517
8;520
9;520
10;522
11;526
12;527
13;522
14;516
15;519
0;524
1;522
2;523
3;525
4;524
5;529
6;536
7;538
8;536
9;533
10;532
11;533
12;533
13;527
14;522
15;519
0;521
1;525
2;525
3;523
4;521
5;521
6;520
7;513
8;507
9;505
10;504
11;505
12;508
13;512
14;514
15;514
0;515
1;518
2;518
3;515
4;515
5;512
6;508
7;506
8;502
9;499
10;499
11;499
12;502
13;504
14;503
15;501
0;499
1;500
2;504
3;502
4;499
5;502
6;507
7;507
8;504
9;507
10;515
11;525
12;536
13;541
14;540
15;537
0;534
1;533
2;532
3;536
4;538
5;538
6;535
7;530
8;530
9;530
10;526
11;526
12;525
13;527
14;530
15;530
0;527
1;527
2;530
3;535
4;539
5;542
6;543
7;543
8;545
9;546
10;543
11;540
12;539
13;536
14;531
15;531
0;535
1;540
2;544
3;543
4;540
5;537
6;538
7;541
8;541
9;540
10;537
11;537
12;537
13;540
14;543
15;545
0;547
1;549
2;550
3;550
4;551
5;552
6;553
7;552
8;550
9;547
10;543
11;537
12;533
13;529
14;528
15;527
0;524
1;525
2;525
3;526
4;528
5;531
6;534
7;534
8;537
9;535
10;528
11;526
12;529
13;531
14;532
15;531
0;534
1;533
2;532
3;530
4;526
5;525
6;524
7;520
8;515
9;512
10;514
11;518
12;518
13;516
14;513
15;511
0;509
1;509
2;512
3;513
4;514
5;517
6;519
7;518
8;516
9;513
10;510
11;505
12;498
13;490
14;485
15;485
0;485
1;484
2;485
3;486
4;491
5;495
6;494
7;495
8;502
9;505
10;505
11;499
12;495
13;493
14;493
15;494
0;492
1;491
2;491
3;494
4;497
5;502
6;504
7;507
8;507
9;504
10;498
11;494
12;491
13;486
14;480
15;481
0;484
1;483
2;480
3;479
4;478
5;477
6;483
7;490
8;493
9;496
10;493
11;491
12;491
13;489
14;486
15;485
0;482
1;479
2;475
3;469
4;467
5;463
6;460
7;463
8;465
9;467
10;474
11;480
12;478
13;473
14;464
15;455
0;449
1;447
2;443
3;439
4;438
5;440
6;438
7;435
8;432
9;428
10;424
11;419
12;418
13;419
14;427
15;434
0;436
1;441
2;450
3;459
4;469
5;480
6;492
7;506
8;518
9;529
10;538
11;544
12;540
13;532
14;527
15;520
0;518
1;514
2;506
3;499
4;495
5;493
6;489
7;488
8;487
9;481
10;476
11;468
12;464
13;462
14;461
15;459
0;452
1;447
2;443
3;437
4;433
5;428
6;423
7;419
8;415
9;412
10;416
11;423
12;432
13;439
14;443
15;447
0;445
1;445
2;447
3;448
4;451
5;453
6;455
7;457
8;461
9;463
10;462
11;462
12;464
13;468
14;466
15;463
0;461
1;460
2;460
3;465
4;471
5;476
6;475
7;472
8;472
9;474
10;475
11;475
12;477
13;479
14;479
15;481
0;483
1;483
2;483
3;483
4;482
5;478
6;476
7;476
8;474
9;472
10;477
11;481
12;484
13;486
14;488
15;489
0;490
1;488
2;487
3;486
4;487
5;492
6;495
7;496
8;498
9;500
10;501
11;499
12;503
13;509
14;511
15;509
0;504
1;500
2;502
3;501
4;499
5;497
6;499
7;502
8;500
9;499
10;498
11;501
12;508
13;511
14;512
15;515
0;520
1;521
2;523
3;527
4;527
5;526
6;526
7;526
8;528
9;531
10;534
11;539
12;539
13;536
14;533
15;534
0;536
1;538
2;535
3;529
4;524
5;517
6;513
7;519
8;528
9;534
10;534
11;532
12;536
13;543
14;549
15;552
0;553
1;554
2;552
3;550
4;550
5;549
6;550
7;550
8;548
9;547
10;548
11;553
12;558
13;558
14;558
15;558
0;561
1;563
2;562
3;558
4;556
5;556
6;556
7;557
8;557
9;553
10;551
11;551
12;555
13;559
14;561
15;565
0;568
1;568
2;568
3;568
4;567
5;566
6;565
7;560
8;555
9;555
10;556
11;556
12;554
13;555
14;555
15;554
0;557
1;560
2;561
3;560
4;562
5;561
6;561
7;564
8;568
9;567
10;565
11;563
12;562
13;561
14;555
15;553
0;553
1;553
2;553
3;552
4;552
5;553
6;551
7;549
8;543
9;541
10;539
11;538
12;535
13;534
14;542
15;550
0;555
1;557
2;555
3;556
4;558
5;560
6;560
7;561
8;563
9;561
10;559
11;553
12;548
13;545
14;544
15;543
0;542
1;540
2;540
3;540
4;539
5;541
6;539
7;537
8;536
9;534
10;531
11;528
12;524
13;525
14;526
15;524
0;519
1;516
2;523
3;528
4;531
5;535
6;536
7;535
8;537
9;539
10;536
11;532
12;530
13;527
14;519
15;513
0;510
1;508
2;508
3;507
4;504
5;501
6;500
7;503
8;506
9;514
10;522
11;525
12;527
13;529
14;525
15;522
0;516
1;512
2;511
3;513
4;515
5;519
6;528
7;536
8;536
9;533
10;533
11;532
12;530
13;527
14;524
15;522
0;524
1;525
2;523
3;519
4;516
5;517
6;521
7;523
8;522
9;521
10;522
11;525
12;528
13;526
14;524
15;523
0;523
1;523
2;526
3;526
4;526
5;527
6;526
7;527
8;530
9;531
10;529
11;525
12;526
13;530
14;530
15;527
0;526
1;526
2;526
3;524
4;524
5;526
6;530
7;533
8;534
9;536
10;537
11;541
12;545
13;545
14;542
15;540
0;538
1;535
2;534
3;533
4;531
5;527
6;525
7;523
8;522
9;525
10;524
11;523
12;528
13;532
14;529
15;522
0;518
1;519
2;525
3;531
4;536
5;536
6;536
7;534
8;531
9;529
10;529
11;526
12;528
13;531
14;529
15;528
0;528
1;533
2;532
3;529
4;530
5;531
6;530
7;530
8;528
9;530
10;535
11;535
12;534
13;534
14;531
15;530
0;529
1;526
2;521
3;517
4;515
5;515
6;513
7;513
8;514
9;514
10;514
11;516
12;518
13;519
14;518
15;519
0;517
1;517
2;518
3;516
4;516
5;517
6;520
7;523
8;523
9;524
10;525
11;525
12;526
13;525
14;523
15;522
0;523
1;520
2;517
3;514
4;512
5;514
6;515
7;512
8;510
9;511
10;514
11;516
12;518
13;521
14;521
15;519
0;518
1;515
2;514
3;518
4;521
5;520
6;519
7;521
8;523
9;524
10;521
11;516
12;512
13;515
14;519
15;520
0;521
1;526
2;526
3;520
4;512
5;507
6;507
7;507
8;506
9;509
10;512
11;513
12;510
13;509
14;512
15;513
0;515
1;516
2;518
3;518
4;513
5;509
6;509
7;509
8;510
9;514
10;519
11;520
12;520
13;519
14;518
15;517
0;513
1;509
2;512
3;523
4;532
5;532
6;526
7;522
8;519
9;517
10;515
11;513
12;515
13;513
14;513
15;512
0;511
1;513
2;515
3;516
4;515
5;515
6;516
7;514
8;512
9;510
10;508
11;508
12;513
13;516
14;516
15;514
0;516
1;515
2;513
3;514
4;517
5;520
6;521
7;519
8;515
9;511
10;507
11;507
12;504
13;502
14;509
15;513
0;513
1;511
2;509
3;511
4;516
5;515
6;518
7;522
8;524
9;523
10;525
11;525
12;523
13;524
14;523
15;521
0;519
1;516
2;517
3;513
4;511
5;513
6;511
7;508
8;508
9;508
10;509
11;511
12;510
13;508
14;507
15;508
0;508
1;508
2;512
3;515
4;515
5;517
6;516
7;515
8;513
9;516
10;515
11;508
12;505
13;505
14;505
15;506
0;508
1;507
2;510
3;512
4;509
5;505
6;506
7;504
8;502
9;499
10;493
11;490
12;487
13;489
14;494
15;498
0;501
1;504
2;506
3;507
4;503
5;498
6;495
7;497
8;502
9;504
10;501
11;506
12;512
13;513
14;515
15;513
0;513
1;515
2;513
3;508
4;503
5;499
6;500
7;502
8;504
9;507
10;507
11;503
12;497
13;498
14;507
15;513
0;515
1;513
2;506
3;502
4;501
5;505
6;511
7;514
8;514
9;508
10;504
11;503
12;503
13;504
14;506
15;507
0;505
1;501
2;496
3;493
4;492
5;491
6;487
7;481
8;475
9;468
10;462
11;456
12;453
13;451
14;455
15;463
0;476
1;490
2;500
3;510
4;520
5;530
6;541
7;551
8;559
9;568
10;576
11;580
12;573
13;560
14;551
15;542
0;539
1;538
2;534
3;532
4;537
5;540
6;540
7;543
8;543
9;540
10;536
11;529
12;522
13;518
14;514
15;510
0;503
1;498
2;496
3;496
4;495
5;494
6;495
7;492
8;489
9;484
10;481
11;481
12;480
13;480
14;478
15;477
0;478
1;478
2;476
3;476
4;474
5;475
6;479
7;482
8;483
9;484
10;487
11;488
12;489
13;496
14;502
15;505
0;503
1;496
2;490
3;492
4;498
5;506
6;512
7;516
8;525
9;529
10;530
11;526
12;521
13;518
14;513
15;509
0;504
1;504
2;506
3;511
4;512
5;513
6;512
7;509
8;511
9;508
10;505
11;507
12;509
13;510
14;506
15;497
0;491
1;489
2;489
3;490
4;492
5;494
6;497
7;502
8;503
9;504
10;506
11;508
12;509
13;508
14;504
15;498
0;489
1;482
2;479
3;480
4;484
5;487
6;487
7;483
8;477
9;471
10;464
11;461
12;457
13;448
14;440
15;439
0;444
1;452
2;457
3;462
4;475
5;484
6;485
7;489
8;494
9;499
10;502
11;500
12;496
13;490
14;484
15;482
0;479
1;471
2;463
3;462
4;456
5;444
6;436
7;429
8;434
9;450
10;460
11;468
12;475
13;476
14;473
15;472
0;471
1;468
2;463
3;460
4;461
5;463
6;457
7;452
8;457
9;465
10;473
11;473
12;469
13;463
14;456
15;453
0;458
1;467
2;472
3;471
4;467
5;465
6;460
7;460
8;459
9;456
10;454
11;449
12;447
13;443
14;439
15;433
0;432
1;434
2;442
3;450
4;454
5;457
6;463
7;467
8;470
9;469
10;468
11;466
12;463
13;463
14;464
15;463
0;463
1;462
2;460
3;458
4;457
5;456
6;456
7;455
8;452
9;445
10;444
11;443
12;438
13;433
14;436
15;440
0;441
1;442
2;440
3;434
4;428
5;424
6;421
7;422
8;425
9;428
10;432
11;435
12;439
13;443
14;447
15;449
0;448
1;450
2;455
3;457
4;454
5;454
6;457
7;456
8;449
9;445
10;441
11;442
12;443
13;446
14;448
15;449
0;450
1;449
2;447
3;444
4;442
5;440
6;440
7;439
8;432
9;423
10;417
11;414
12;412
13;417
14;431
15;440
0;443
1;445
2;441
3;447
4;456
5;459
6;460
7;460
8;457
9;456
10;452
11;453
12;460
13;462
14;454
15;448
0;441
1;445
2;455
3;458
4;460
5;460
6;457
7;457
8;460
9;459
10;455
11;450
12;453
13;460
14;463
15;460
0;457
1;460
2;464
3;469
4;471
5;472
6;470
7;468
8;467
9;466
10;464
11;459
12;456
13;455
14;456
15;456
0;456
1;452
2;447
3;446
4;443
5;444
6;448
7;445
8;444
9;445
10;446
11;440
12;440
13;444
14;450
15;454
0;463
1;470
2;470
3;466
4;462
5;461
6;460
7;463
8;465
9;462
10;464
11;468
12;470
13;472
14;474
15;470
0;467
1;467
2;467
3;469
4;472
5;476
6;480
7;481
8;478
9;475
10;475
11;477
12;478
13;480
14;478
15;474
0;470
1;462
2;457
3;454
4;459
5;469
6;479
7;486
8;491
9;492
10;490
11;489
12;487
13;484
14;483
15;484
0;485
1;485
2;486
3;486
4;486
5;487
6;486
7;483
8;483
9;483
10;479
11;478
12;481
13;482
14;481
15;484
0;488
1;489
2;491
3;495
4;499
5;501
6;503
7;504
8;503
9;500
10;499
11;500
12;504
13;507
14;504
15;502
0;501
1;499
2;496
3;496
4;497
5;499
6;500
7;499
8;497
9;496
10;497
11;497
12;496
13;494
14;493
15;493
0;496
1;501
2;504
3;506
4;510
5;511
6;513
7;511
8;509
9;510
10;511
11;511
12;511
13;510
14;507
15;504
0;505
1;509
2;515
3;519
4;518
5;518
6;519
7;520
8;524
9;526
10;525
11;524
12;521
13;517
14;511
15;508
0;507
1;505
2;506
3;505
4;502
5;500
6;498
7;495
8;494
9;498
10;500
11;516
12;535
13;540
14;538
15;533
0;532
1;534
2;540
3;547
4;548
5;547
6;544
7;540
8;536
9;536
10;538
11;537
12;539
13;539
14;538
15;539
0;542
1;542
2;543
3;545
4;546
5;547
6;548
7;545
8;542
9;541
10;540
11;537
12;537
13;537
14;538
15;541
0;544
1;545
2;543
3;541
4;539
5;536
6;536
7;538
8;543
9;550
10;557
11;562
12;564
13;563
14;563
15;564
0;563
1;560
2;556
3;555
4;556
5;554
6;552
7;553
8;553
9;550
10;550
11;549
12;549
13;548
14;545
15;545
0;545
1;550
2;553
3;550
4;547
5;544
6;544
7;545
8;549
9;551
10;553
11;557
12;560
13;558
14;554
15;553
0;553
1;551
2;550
3;551
4;548
5;548
6;548
7;548
8;549
9;550
10;547
11;547
12;548
13;550
14;547
15;543
0;542
1;539
2;536
3;535
4;534
5;531
6;531
7;536
8;536
9;536
10;538
11;539
12;543
13;545
14;547
15;544
0;541
1;536
2;530
3;527
4;524
5;519
6;515
7;512
8;511
9;511
10;516
11;524
12;527
13;527
14;527
15;528
0;530
1;531
2;531
3;529
4;527
5;525
6;524
7;523
8;520
9;521
10;524
11;526
12;527
13;528
14;527
15;525
0;521
1;516
2;515
3;516
4;519
5;523
6;530
7;537
8;537
9;533
10;529
11;530
12;533
13;533
14;534
15;532
0;536
1;543
2;542
3;541
4;539
5;537
6;537
7;536
8;536
9;533
10;532
11;529
12;528
13;528
14;530
15;534
0;536
1;537
2;543
3;545
4;543
5;541
6;537
7;537
8;536
9;540
10;546
11;547
12;544
13;540
14;540
15;541
0;542
1;544
2;542
3;543
4;542
5;539
6;537
7;536
8;534
9;528
10;524
11;524
12;523
13;518
14;514
15;512
0;509
1;496
2;483
3;470
4;469
5;476
6;483
7;496
8;504
9;512
10;522
11;532
12;554
13;582
14;609
15;633
0;649
1;656
2;664
3;666
4;660
5;649
6;635
7;624
8;613
9;603
10;595
11;587
12;581
13;587
14;599
15;600
0;590
1;578
2;567
3;564
4;561
5;558
6;556
7;551
8;543
9;533
10;523
11;517
12;509
13;505
14;502
15;503
0;507
1;511
2;511
3;503
4;496
5;493
6;488
7;480
8;481
9;483
10;493
11;501
12;500
13;501
14;506
15;515
0;522
1;531
2;539
3;541
4;534
5;527
6;535
7;541
8;540
9;538
10;534
11;516
12;506
13;515
14;524
15;519
0;523
1;521
2;516
3;507
4;496
5;502
6;518
7;532
8;541
9;543
10;537
11;537
12;537
13;544
14;545
15;544
0;537
1;530
2;529
3;528
4;530
5;533
6;546
7;569
8;585
9;592
10;592
11;586
12;577
13;564
14;553
15;548
0;539
1;529
2;526
3;529
4;530
5;529
6;525
7;519
8;519
9;522
10;517
11;504
12;484
13;474
14;465
15;456
0;462
1;487
2;504
3;512
4;520
5;522
6;522
7;521
8;516
9;511
10;511
11;512
12;515
13;509
14;501
15;493
0;480
1;472
2;473
3;476
4;472
5;474
6;487
7;496
8;495
9;493
10;493
11;487
12;485
13;481
14;473
15;475
0;480
1;482
2;486
3;490
4;494
5;492
6;492
7;496
8;497
9;492
10;483
11;479
12;480
13;479
14;478
15;481
0;487
1;486
2;489
3;500
4;513
5;517
6;510
7;505
8;503
9;507
10;512
11;518
12;521
13;519
14;513
15;510
0;498
1;484
2;480
3;487
4;491
5;496
6;498
7;494
8;490
9;489
10;483
11;484
12;488
13;488
14;488
15;490
0;491
1;488
2;486
3;483
4;486
5;485
6;482
7;482
8;485
9;493
10;496
11;493
12;491
13;499
14;506
15;508
0;510
1;512
2;511
3;504
4;499
5;498
6;497
7;496
8;494
9;492
10;488
11;484
12;478
13;473
14;470
15;473
0;476
1;478
2;477
3;474
4;469
5;469
6;468
7;465
8;465
9;468
10;472
11;469
12;465
13;466
14;470
15;472
0;474
1;474
2;472
3;470
4;472
5;480
6;482
7;484
8;487
9;482
10;478
11;478
12;481
13;481
14;482
15;486
0;493
1;495
2;498
3;504
4;506
5;505
6;504
7;501
8;496
9;490
10;489
11;491
12;494
13;494
14;495
15;495
0;492
1;496
2;504
3;506
4;505
5;506
6;504
7;501
8;500
9;500
10;502
11;505
12;505
13;505
14;507
15;506
0;507
1;507
2;502
3;498
4;502
5;505
6;507
7;511
8;514
9;514
10;513
11;515
12;515
13;516
14;517
15;516
0;516
1;515
2;514
3;513
4;510
5;506
6;505
7;505
8;504
9;506
10;508
11;510
12;510
13;510
14;514
15;522
0;526
1;525
2;527
3;528
4;526
5;523
6;521
7;519
8;514
9;512
10;512
11;512
12;510
13;510
14;514
15;518
0;524
1;527
2;532
3;537
4;536
5;534
6;528
7;521
8;521
9;526
10;533
11;543
12;550
13;552
14;553
15;556
0;562
1;560
2;556
3;551
4;548
5;546
6;544
7;543
8;543
9;543
10;544
11;544
12;545
13;548
14;550
15;549
0;547
1;549
2;550
3;548
4;546
5;543
6;541
7;542
8;543
9;546
10;546
11;544
12;542
13;540
14;539
15;537
0;537
1;538
2;536
3;532
4;531
5;535
6;539
7;541
8;545
9;549
10;553
11;552
12;552
13;551
14;547
15;546
0;545
1;544
2;538
3;535
4;531
5;530
6;531
7;531
8;528
9;522
10;518
11;518
12;522
13;527
14;528
15;527
0;527
1;525
2;526
3;527
4;528
5;527
6;525
7;521
8;523
9;527
10;530
11;529
12;527
13;528
14;525
15;524
0;525
1;524
2;524
3;530
4;533
5;532
6;527
7;521
8;517
9;513
10;508
11;506
12;508
13;514
14;518
15;518
0;516
1;513
2;511
3;512
4;510
5;509
6;508
7;510
8;512
9;512
10;505
11;503
12;505
13;502
14;494
15;495
0;504
1;510
2;522
3;529
4;530
5;530
6;525
7;521
8;520
9;521
10;523
11;520
12;517
13;512
14;509
15;509
0;507
1;508
2;512
3;516
4;523
5;528
6;531
7;529
8;528
9;531
10;530
11;528
12;527
13;526
14;527
15;529
0;529
1;527
2;526
3;536
4;544
5;547
6;547
7;547
8;545
9;543
10;540
11;539
12;537
13;534
14;532
15;533
0;532
1;529
2;529
3;532
4;535
5;536
6;537
7;537
8;537
9;539
10;540
11;543
12;547
13;547
14;543
15;537
0;530
1;526
2;519
3;510
4;506
5;502
6;503
7;504
8;505
9;510
10;514
11;518
12;514
13;515
14;520
15;521
0;519
1;518
2;519
3;518
4;515
5;513
6;510
7;508
8;509
9;510
10;510
11;509
12;510
13;508
14;509
15;510
0;512
1;515
2;517
3;517
4;516
5;517
6;519
7;521
8;522
9;520
10;518
11;519
12;520
13;519
14;518
15;516
0;520
1;522
2;521
3;522
4;522
5;521
6;525
7;529
8;531
9;530
10;531
11;532
12;531
13;528
14;524
15;520
0;517
1;514
2;515
3;516
4;517
5;518
6;520
7;522
8;522
9;523
10;526
11;529
12;530
13;531
14;539
15;541
0;534
1;530
2;526
3;522
4;516
5;513
6;512
7;507
8;507
9;508
10;508
11;509
12;509
13;509
14;507
15;504
0;500
1;498
2;496
3;493
4;492
5;488
6;485
7;486
8;489
9;494
10;496
11;496
12;497
13;494
14;495
15;501
0;500
1;494
2;490
3;490
4;491
5;492
6;493
7;494
8;492
9;492
10;494
11;497
12;497
13;495
14;491
15;484
0;474
1;470
2;469
3;471
4;473
5;482
6;496
7;507
8;520
9;540
10;550
11;563
12;573
13;582
14;588
15;601
0;614
1;620
2;614
3;605
4;592
5;582
6;573
7;563
8;558
9;562
10;567
11;572
12;570
13;565
14;561
15;555
0;547
1;541
2;532
3;520
4;511
5;505
6;507
7;512
8;513
9;512
10;511
11;510
12;511
13;508
14;504
15;500
0;495
1;492
2;489
3;487
4;486
5;482
6;482
7;484
8;485
9;487
10;489
11;491
12;489
13;486
14;486
15;492
0;493
1;494
2;497
3;499
4;501
5;504
6;505
7;508
8;511
9;513
10;517
11;519
12;523
13;523
14;524
15;526
0;527
1;524
2;518
3;513
4;508
5;500
6;493
7;488
8;487
9;487
10;494
11;503
12;514
13;523
14;529
15;534
0;539
1;545
2;552
3;556
4;554
5;551
6;546
7;540
8;534
9;528
10;525
11;525
12;527
13;526
14;526
15;529
0;532
1;532
2;529
3;527
4;526
5;521
6;516
7;519
8;522
9;528
10;529
11;526
12;529
13;533
14;532
15;531
0;530
1;527
2;524
3;524
4;531
5;537
6;537
7;533
8;529
9;526
10;523
11;520
12;520
13;519
14;517
15;516
0;514
1;512
2;511
3;509
4;508
5;509
6;507
7;507
8;503
9;500
10;495
11;492
12;490
13;491
14;490
15;490
0;492
1;493
2;492
3;491
4;489
5;488
6;487
7;486
8;484
9;484
10;481
11;480
12;480
13;481
14;482
15;482
0;483
1;484
2;489
3;495
4;496
5;496
6;498
7;499
8;499
9;502
10;506
11;507
12;508
13;508
14;505
15;497
0;490
1;491
2;491
3;489
4;487
5;483
6;481
7;479
8;472
9;471
10;477
11;490
12;498
13;502
14;505
15;510
0;519
1;522
2;523
3;519
4;512
5;511
6;509
7;509
8;511
9;511
10;508
11;505
12;502
13;498
14;495
15;493
0;491
1;489
2;486
3;485
4;486
5;487
6;488
7;487
8;485
9;484
10;485
11;484
12;479
13;477
14;480
15;481
0;479
1;475
2;473
3;468
4;463
5;463
6;467
7;473
8;475
9;470
10;464
11;464
12;466
13;469
14;471
15;468
0;463
1;454
2;439
3;425
4;417
5;416
6;430
7;449
8;463
9;471
10;475
11;478
12;479
13;477
14;476
15;479
0;478
1;473
2;466
3;463
4;460
5;462
6;468
7;475
8;480
9;479
10;471
11;463
12;461
13;461
14;461
15;461
0;461
1;461
2;462
3;462
4;465
5;469
6;471
7;473
8;472
9;466
10;460
11;462
12;466
13;469
14;472
15;474
0;472
1;471
2;465
3;458
4;455
5;452
6;446
7;440
8;437
9;439
10;443
11;449
12;455
13;461
14;461
15;458
0;457
1;458
2;455
3;451
4;453
5;457
6;460
7;460
8;462
9;470
10;479
11;484
12;485
13;483
14;479
15;476
0;472
1;470
2;470
3;476
4;479
5;479
6;478
7;476
8;473
9;474
10;478
11;478
12;476
13;471
14;468
15;464
0;459
1;457
2;462
3;464
4;465
5;466
6;466
7;466
8;466
9;463
10;460
11;457
12;463
13;472
14;475
15;476
0;475
1;473
2;469
3;471
4;469
5;463
6;459
7;457
8;455
9;455
10;455
11;455
12;455
13;455
14;462
15;468
0;467
1;462
2;458
3;457
4;463
5;461
6;460
7;463
8;471
9;474
10;476
11;480
12;484
13;484
14;482
15;483
0;484
1;484
2;481
3;476
4;471
5;466
6;462
7;465
8;475
9;481
10;489
11;496
12;502
13;506
14;508
15;509
0;508
1;508
2;507
3;505
4;501
5;496
6;494
7;495
8;493
9;492
10;495
11;499
12;503
13;507
14;509
15;510
0;511
1;511
2;510
3;509
4;508
5;505
6;502
7;497
8;494
9;493
10;497
11;500
12;503
13;506
14;509
15;507
0;502
1;497
2;496
3;496
4;497
5;498
6;495
7;492
8;487
9;483
10;483
11;477
12;469
13;468
14;471
15;468
0;467
1;467
2;465
3;464
4;483
5;497
6;503
7;503
8;504
9;506
10;517
11;527
12;532
13;534
14;535
15;532
0;531
1;528
2;524
3;521
4;520
5;523
6;525
7;527
8;528
9;527
10;527
11;528
12;527
13;523
14;516
15;512
0;507
1;499
2;494
3;494
4;498
5;502
6;505
7;509
8;510
9;511
10;513
11;513
12;515
13;514
14;511
15;512
0;512
1;512
2;517
3;521
4;524
5;527
6;527
7;525
8;523
9;520
10;516
11;510
12;504
13;500
14;498
15;497
0;498
1;499
2;496
3;493
4;492
5;491
6;488
7;485
8;483
9;479
10;471
11;464
12;462
13;464
14;467
15;473
0;476
1;480
2;485
3;486
4;483
5;473
6;461
7;460
8;468
9;480
10;487
11;488
12;491
13;491
14;483
15;483
0;492
1;504
2;512
3;516
4;518
5;521
6;516
7;509
8;504
9;498
10;496
11;494
12;494
13;492
14;486
15;484
0;485
1;485
2;487
3;488
4;485
5;482
6;481
7;480
8;475
9;480
10;496
11;505
12;511
13;512
14;509
15;505
0;501
1;499
2;499
3;499
4;498
5;492
6;487
7;487
8;487
9;488
10;490
11;490
12;486
13;480
14;477
15;478
0;482
1;484
2;488
3;492
4;496
5;499
6;501
7;501
8;502
9;503
10;504
11;502
12;501
13;495
14;488
15;489
0;489
1;486
2;484
3;483
4;486
5;487
6;483
7;480
8;492
9;500
10;497
11;493
12;488
13;476
14;464
15;458
0;457
1;462
2;468
3;467
4;470
5;479
6;479
7;476
8;473
9;470
10;467
11;466
12;470
13;476
14;489
15;503
0;508
1;511
2;523
3;537
4;543
5;545
6;556
7;566
8;568
9;565
10;558
11;562
12;577
13;583
14;587
15;584
0;577
1;572
2;570
3;572
4;574
5;571
6;573
7;574
8;568
9;556
10;539
11;525
12;515
13;510
14;499
15;483
0;479
1;479
2;477
3;472
4;474
5;473
6;469
7;466
8;465
9;471
10;479
11;479
12;478
13;479
14;479
15;477
0;480
1;488
2;485
3;481
4;496
5;512
6;520
7;524
8;524
9;523
10;521
11;515
12;511
13;508
14;502
15;497
0;492
1;488
2;487
3;490
4;492
5;494
6;494
7;491
8;491
9;492
10;495
11;496
12;499
13;503
14;503
15;502
0;503
1;511
2;521
3;521
4;514
5;507
6;511
7;515
8;517
9;519
10;521
11;520
12;519
13;519
14;518
15;511
0;513
1;525
2;537
3;541
4;543
5;539
6;536
7;535
8;528
9;520
10;515
11;512
12;506
13;504
14;500
15;504
0;510
1;510
2;505
3;505
4;515
5;525
6;526
7;528
8;527
9;527
10;527
11;524
12;523
13;519
14;514
15;510
0;501
1;497
2;502
3;507
4;503
5;495
6;492
7;493
8;504
9;515
10;519
11;522
12;524
13;524
14;525
15;520
0;512
1;504
2;501
3;501
4;508
5;519
6;528
7;531
8;531
9;526
10;520
11;513
12;510
13;509
14;504
15;496
0;502
1;511
2;516
3;524
4;529
5;530
6;532
7;536
8;541
9;546
10;548
11;541
12;536
13;535
14;535
15;539
0;542
1;537
2;534
3;533
4;535
5;537
6;536
7;533
8;530
9;526
10;526
11;526
12;517
13;512
14;510
15;513
0;516
1;518
2;516
3;512
4;512
5;514
6;513
7;512
8;513
9;515
10;519
11;525
12;527
13;526
14;523
15;527
0;532
1;536
2;532
3;530
4;527
5;521
6;511
7;496
8;493
9;495
10;494
11;499
12;512
13;520
14;524
15;525
0;534
1;537
2;534
3;527
4;521
5;524
6;539
7;545
8;540
9;531
10;530
11;537
12;541
13;540
14;539
15;540
0;544
1;548
2;546
3;541
4;535
5;533
6;534
7;527
8;525
9;535
10;543
11;544
12;545
13;546
14;549
15;545
0;544
1;540
2;532
3;534
4;534
5;532
6;524
7;519
8;518
9;519
10;521
11;522
12;520
13;517
14;514
15;511
0;510
1;508
2;504
3;505
4;504
5;495
6;486
7;488
8;496
9;505
10;515
11;521
12;524
13;525
14;521
15;511
0;503
1;501
2;506
3;516
4;516
5;516
6;517
7;515
8;511
9;509
10;510
11;505
12;496
13;493
14;500
15;518
0;532
1;539
2;543
3;541
4;537
5;531
6;525
7;525
8;535
9;539
10;532
11;527
12;522
13;511
14;501
15;512
0;530
1;543
2;546
3;549
4;552
5;556
6;556
7;553
8;549
9;544
10;543
11;536
12;527
13;517
14;510
15;514
0;524
1;529
2;528
3;526
4;530
5;532
6;537
7;541
8;541
9;530
10;510
11;509
12;521
13;535
14;541
15;542
0;542
1;540
2;540
3;540
4;535
5;532
6;527
7;523
8;527
9;533
10;536
11;537
12;536
13;530
14;522
15;520
0;525
1;529
2;527
3;527
4;530
5;531
6;530
7;530
8;531
9;529
10;525
11;519
12;513
13;517
14;520
15;520
0;519
1;518
2;522
3;526
4;525
5;528
6;533
7;539
8;540
9;532
10;528
11;535
12;540
13;536
14;528
15;532
0;544
1;548
2;559
3;571
4;576
5;574
6;570
7;564
8;558
9;556
10;561
11;569
12;571
13;569
14;569
15;570
0;569
1;561
2;546
3;540
4;533
5;524
6;523
7;534
8;553
9;564
10;567
11;563
12;555
13;542
14;525
15;508
0;488
1;472
2;486
3;516
4;551
5;572
6;582
7;589
8;592
9;588
10;586
11;584
12;580
13;571
14;564
15;561
0;553
1;547
2;545
3;543
4;539
5;532
6;525
7;528
8;534
9;535
10;537
11;540
12;539
13;540
14;538
15;532
0;534
1;531
2;517
3;508
4;500
5;486
6;494
7;508
8;524
9;535
10;539
11;546
12;548
13;545
14;554
15;561
0;555
1;540
2;523
3;511
4;508
5;518
6;543
7;564
8;573
9;574
10;567
11;564
12;561
13;558
14;551
15;542
0;535
1;529
2;519
3;513
4;514
5;517
6;515
7;521
8;526
9;526
10;533
11;537
12;535
13;528
14;515
15;485
0;455
1;463
2;495
3;519
4;529
5;531
6;529
7;523
8;516
9;509
