0;547
1;527
2;497
3;467
4;438
5;395
6;351
7;333
8;327
9;324
10;324
11;332
12;342
13;356
14;373
15;386
0;402
1;415
2;435
3;456
4;473
5;480
6;479
7;467
8;462
9;471
10;486
11;500
12;512
13;523
14;529
15;522
0;513
1;515
2;522
3;530
4;540
5;548
6;556
7;560
8;563
9;564
10;564
11;566
12;566
13;561
14;558
15;566
0;572
1;573
2;567
3;558
4;550
5;543
6;535
7;531
8;532
9;535
10;534
11;531
12;529
13;530
14;531
15;532
0;534
1;532
2;527
3;524
4;519
5;518
6;515
7;515
8;518
9;522
10;523
11;526
12;526
13;520
14;514
15;509
0;508
1;509
2;505
3;493
4;489
5;495
6;489
7;478
8;478
9;484
10;488
11;488
12;485
13;478
14;475
15;482
0;491
1;497
2;499
3;492
4;483
5;489
6;501
7;501
8;493
9;484
10;481
11;484
12;482
13;483
14;488
15;491
0;498
1;504
2;509
3;510
4;510
5;498
6;488
7;487
8;487
9;489
10;493
11;497
12;499
13;501
14;496
15;488
0;483
1;480
2;478
3;474
4;478
5;479
6;478
7;476
8;477
9;474
10;470
11;470
12;465
13;448
14;440
15;443
0;444
1;444
2;449
3;450
4;440
5;436
6;442
7;446
8;449
9;453
10;462
11;481
12;493
13;496
14;492
15;489
0;475
1;447
2;432
3;430
4;429
5;431
6;435
7;438
8;444
9;445
10;446
11;448
12;451
13;455
14;458
15;461
0;465
1;465
2;460
3;459
4;463
5;467
6;471
7;476
8;476
9;473
10;472
11;477
12;482
13;484
14;486
15;487
0;487
1;488
2;491
3;497
4;502
5;505
6;505
7;500
8;498
9;496
10;495
11;495
12;499
13;502
14;506
15;507
0;504
1;502
2;500
3;497
4;498
5;499
6;504
7;506
8;508
9;504
10;507
11;509
12;502
13;497
14;496
15;498
0;490
1;474
2;467
3;473
4;482
5;484
6;490
7;488
8;477
9;462
10;455
11;456
12;462
13;465
14;476
15;484
0;487
1;490
2;495
3;502
4;508
5;511
6;508
7;498
8;487
9;484
10;482
11;478
12;480
13;482
14;486
15;488
0;486
1;483
2;479
3;478
4;478
5;479
6;481
7;484
8;486
9;488
10;492
11;495
12;499
13;501
14;501
15;500
0;497
1;495
2;499
3;507
4;511
5;513
6;513
7;510
8;508
9;509
10;507
11;508
12;511
13;512
14;513
15;512
0;511
1;511
2;517
3;526
4;540
5;552
6;566
7;574
8;566
9;543
10;527
11;521
12;522
13;523
14;519
15;524
0;532
1;544
2;557
3;560
4;552
5;544
6;540
7;544
8;551
9;548
10;548
11;546
12;538
13;531
14;528
15;523
0;523
1;531
2;540
3;545
4;549
5;552
6;551
7;550
8;554
9;555
10;555
11;552
12;553
13;555
14;562
15;567
0;567
1;568
2;572
3;571
4;563
5;550
6;536
7;529
8;530
9;537
10;543
11;541
12;542
13;545
14;543
15;545
0;548
1;547
2;547
3;545
4;543
5;547
6;553
7;559
8;562
9;567
10;572
11;579
12;587
13;595
14;603
15;608
0;617
1;629
2;633
3;633
4;634
5;637
6;640
7;641
8;640
9;634
10;626
11;619
12;617
13;621
14;614
15;591
0;573
1;556
2;543
3;527
4;512
5;498
6;474
7;449
8;422
9;393
10;363
11;340
12;327
13;317
14;306
15;297
0;294
1;305
2;328
3;357
4;389
5;414
6;436
7;460
8;486
9;506
10;519
11;525
12;528
13;534
14;543
15;557
0;564
1;568
2;568
3;571
4;572
5;574
6;576
7;575
8;574
9;574
10;576
11;579
12;582
13;583
14;584
15;584
0;582
1;579
2;575
3;573
4;574
5;575
6;574
7;570
8;566
9;563
10;560
11;559
12;556
13;551
14;548
15;543
0;543
1;545
2;538
3;529
4;525
5;521
6;516
7;513
8;511
9;512
10;518
11;521
12;513
13;500
14;497
15;502
0;508
1;515
2;513
3;509
4;504
5;499
6;501
7;504
8;506
9;505
10;506
11;506
12;508
13;511
14;513
15;509
0;504
1;505
2;513
3;514
4;508
5;508
6;512
7;515
8;518
9;521
10;522
11;522
12;524
13;524
14;518
15;512
0;507
1;502
2;496
3;499
4;498
5;487
6;482
7;485
8;489
9;493
10;497
11;503
12;504
13;494
14;485
15;478
0;478
1;479
2;479
3;481
4;485
5;484
6;482
7;485
8;491
9;492
10;487
11;481
12;465
13;451
14;447
15;450
0;455
1;454
2;449
3;447
4;446
5;448
6;451
7;454
8;456
9;460
10;469
11;476
12;482
13;482
14;480
15;483
0;487
1;486
2;481
3;480
4;477
5;476
6;475
7;476
8;484
9;490
10;492
11;496
12;498
13;488
14;474
15;465
0;461
1;461
2;470
3;477
4;481
5;483
6;486
7;487
8;488
9;490
10;492
11;493
12;495
13;496
14;494
15;491
0;489
1;484
2;483
3;486
4;493
5;503
6;507
7;503
8;503
9;504
10;500
11;494
12;489
13;484
14;477
15;476
0;479
1;485
2;492
3;499
4;502
5;499
6;497
7;501
8;510
9;523
10;531
11;529
12;521
13;513
14;510
15;506
0;507
1;511
2;509
3;497
4;494
5;496
6;502
7;508
8;507
9;503
10;503
11;505
12;512
13;515
14;516
15;512
0;499
1;481
2;477
3;485
4;492
5;497
6;502
7;500
8;494
9;485
10;475
11;474
12;480
13;478
14;474
15;472
0;473
1;474
2;474
3;476
4;475
5;475
6;471
7;469
8;474
9;478
10;483
11;489
12;496
13;498
14;499
15;501
0;505
1;507
2;510
3;515
4;520
5;521
6;522
7;523
8;524
9;526
10;525
11;524
12;519
13;515
14;514
15;513
0;514
1;518
2;524
3;530
4;534
5;537
6;534
7;531
8;531
9;531
10;531
11;532
12;536
13;539
14;546
15;555
0;563
1;568
2;572
3;572
4;565
5;557
6;551
7;550
8;550
9;551
10;555
11;558
12;560
13;568
14;578
15;591
0;602
1;607
2;594
3;572
4;547
5;535
6;536
7;539
8;539
9;529
10;524
11;524
12;527
13;531
14;533
15;539
0;546
1;553
2;557
3;558
4;557
5;557
6;554
7;549
8;549
9;544
10;537
11;538
12;542
13;545
14;544
15;543
0;548
1;556
2;562
3;564
4;558
5;557
6;557
7;553
8;555
9;556
10;558
11;561
12;563
13;566
14;571
15;578
0;584
1;588
2;595
3;601
4;608
5;615
6;616
7;619
8;625
9;632
10;641
11;649
12;653
13;655
14;654
15;651
0;646
1;641
2;636
3;624
4;609
5;593
6;580
7;572
8;562
9;550
10;532
11;510
12;481
13;445
14;406
15;364
0;330
1;310
2;307
3;315
4;331
5;351
6;367
7;386
8;408
9;422
10;436
11;448
12;461
13;469
14;475
15;484
0;495
1;503
2;515
3;528
4;543
5;556
6;568
7;571
8;560
9;545
10;540
11;541
12;545
13;547
14;554
15;560
0;570
1;577
2;581
3;589
4;596
5;598
6;594
7;588
8;579
9;570
10;561
11;558
12;555
13;552
14;554
15;559
0;561
1;562
2;563
3;564
4;567
5;569
6;570
7;566
8;563
9;560
10;557
11;555
12;547
13;533
14;524
15;516
0;515
1;515
2;519
3;521
4;521
5;519
6;519
7;521
8;525
9;532
10;543
11;545
12;537
13;528
14;519
15;509
0;504
1;508
2;510
3;505
4;502
5;495
6;492
7;500
8;505
9;506
10;507
11;510
12;514
13;512
14;504
15;488
0;478
1;477
2;479
3;482
4;486
5;490
6;490
7;495
8;502
9;504
10;507
11;510
12;508
13;505
14;502
15;499
0;504
1;505
2;507
3;506
4;505
5;504
6;504
7;507
8;509
9;510
10;513
11;509
12;506
13;502
14;495
15;488
0;481
1;478
2;480
3;483
4;486
5;484
6;484
7;485
8;486
9;488
10;490
11;489
12;488
13;490
14;488
15;487
0;487
1;485
2;480
3;476
4;473
5;473
6;477
7;480
8;483
9;489
10;494
11;496
12;489
13;481
14;468
15;464
0;467
1;462
2;463
3;471
4;476
5;481
6;482
7;483
8;485
9;484
10;478
11;475
12;472
13;477
14;480
15;475
0;468
1;467
2;471
3;476
4;481
5;482
6;483
7;492
8;507
9;510
10;505
11;497
12;488
13;487
14;492
15;498
0;505
1;508
2;507
3;504
4;504
5;510
6;516
7;521
8;526
9;528
10;530
11;534
12;531
13;524
14;519
15;518
0;516
1;514
2;513
3;515
4;512
5;510
6;512
7;517
8;517
9;513
10;512
11;511
12;508
13;510
14;509
15;508
0;512
1;511
2;509
3;509
4;508
5;510
6;508
7;508
8;506
9;504
10;504
11;503
12;505
13;509
14;511
15;508
0;502
1;500
2;504
3;502
4;498
5;498
6;500
7;504
8;501
9;500
10;487
11;465
12;465
13;473
14;478
15;483
0;481
1;480
2;477
3;477
4;476
5;475
6;475
7;483
8;498
9;510
10;516
11;518
12;507
13;492
14;495
15;506
0;516
1;523
2;528
3;530
4;530
5;526
6;522
7;520
8;521
9;522
10;523
11;525
12;528
13;533
14;540
15;546
0;548
1;547
2;540
3;535
4;533
5;532
6;538
7;543
8;549
9;558
10;562
11;563
12;564
13;559
14;556
15;556
0;559
1;561
2;560
3;560
4;559
5;560
6;561
7;562
8;559
9;555
10;551
11;551
12;554
13;558
14;564
15;575
0;583
1;585
2;585
3;584
4;572
5;562
6;554
7;541
8;537
9;547
10;551
11;547
12;547
13;553
14;548
15;540
0;537
1;539
2;541
3;541
4;543
5;547
6;550
7;552
8;554
9;563
10;567
11;559
12;550
13;549
14;555
15;563
0;571
1;572
2;570
3;564
4;563
5;572
6;579
7;586
8;593
9;601
10;605
11;609
12;614
13;624
14;633
15;640
0;646
1;648
2;649
3;653
4;653
5;651
6;647
7;643
8;638
9;630
10;621
11;608
12;594
13;576
14;559
15;548
0;542
1;533
2;516
3;491
4;456
5;416
6;381
7;359
8;347
9;339
10;335
11;337
12;342
13;351
14;370
15;391
0;411
1;434
2;452
3;483
4;509
5;511
6;503
7;502
8;496
9;491
10;490
11;497
12;510
13;525
14;535
15;540
0;546
1;550
2;554
3;559
4;566
5;572
6;577
7;583
8;584
9;586
10;586
11;588
12;591
13;591
14;591
15;585
0;578
1;575
2;573
3;570
4;569
5;573
6;577
7;574
8;563
9;552
10;545
11;546
12;549
13;547
14;544
15;539
0;535
1;532
2;533
3;535
4;535
5;535
6;534
7;530
8;528
9;526
10;524
11;523
12;525
13;529
14;537
15;544
0;545
1;535
2;521
3;517
4;527
5;525
6;524
7;527
8;522
9;515
10;507
11;500
12;497
13;495
14;494
15;497
0;500
1;501
2;504
3;509
4;514
5;511
6;508
7;510
8;512
9;511
10;508
11;507
12;506
13;505
14;504
15;501
0;501
1;502
2;502
3;502
4;503
5;510
6;513
7;512
8;512
9;512
10;513
11;511
12;509
13;507
14;504
15;500
0;496
1;495
2;492
3;491
4;492
5;496
6;500
7;502
8;501
9;504
10;508
11;510
12;510
13;505
14;504
15;503
0;498
1;492
2;484
3;477
4;473
5;467
6;461
7;463
8;472
9;474
10;476
11;474
12;474
13;477
14;484
15;484
0;483
1;482
2;477
3;478
4;483
5;492
6;501
7;504
8;498
9;484
10;481
11;483
12;486
13;486
14;485
15;485
0;487
1;489
2;491
3;494
4;496
5;495
6;498
7;502
8;502
9;501
10;501
11;499
12;499
13;499
14;501
15;505
0;508
1;511
2;514
3;516
4;518
5;516
6;518
7;520
8;520
9;518
10;517
11;515
12;511
13;504
14;501
15;501
0;506
1;510
2;507
3;506
4;505
5;504
6;504
7;506
8;508
9;507
10;506
11;505
12;507
13;507
14;504
15;502
0;500
1;498
2;496
3;494
4;492
5;491
6;493
7;497
8;502
9;504
10;504
11;499
12;499
13;498
14;500
15;499
0;492
1;487
2;489
3;487
4;481
5;478
6;477
7;483
8;498
9;511
10;516
11;505
12;486
13;473
14;470
15;475
0;475
1;469
2;460
3;461
4;464
5;467
6;472
7;475
8;474
9;479
10;487
11;496
12;500
13;503
14;502
15;494
0;494
1;499
2;503
3;508
4;514
5;516
6;516
7;517
8;519
9;520
10;517
11;513
12;512
13;517
14;523
15;527
0;529
1;531
2;537
3;542
4;545
5;542
6;538
7;537
8;531
9;522
10;519
11;520
12;524
13;527
14;528
15;529
0;527
1;530
2;539
3;546
4;554
5;561
6;563
7;562
8;551
9;533
10;525
11;522
12;519
13;522
14;530
15;537
0;550
1;566
2;573
3;559
4;545
5;534
6;525
7;523
8;524
9;526
10;533
11;536
12;537
13;537
14;536
15;539
0;540
1;546
2;555
3;561
4;564
5;563
6;559
7;558
8;558
9;561
10;563
11;562
12;563
13;563
14;561
15;558
0;553
1;552
2;552
3;551
4;544
5;539
6;538
7;539
8;542
9;546
10;551
11;554
12;558
13;567
14;575
15;581
0;589
1;601
2;611
3;617
4;618
5;618
6;619
7;622
8;627
9;629
10;627
11;624
12;623
13;627
14;632
15;633
0;631
1;627
2;617
3;607
4;589
5;567
6;549
7;534
8;524
9;505
10;482
11;453
12;425
13;391
14;363
15;345
0;332
1;325
2;321
3;322
4;326
5;335
6;356
7;378
8;396
9;417
10;438
11;460
12;482
13;499
14;499
15;498
0;498
1;494
2;497
3;503
4;505
5;514
6;521
7;528
8;537
9;539
10;539
11;537
12;538
13;542
14;544
15;547
0;551
1;557
2;563
3;570
4;573
5;574
6;572
7;569
8;568
9;568
10;568
11;567
12;564
13;561
14;561
15;568
0;572
1;568
2;565
3;563
4;564
5;560
6;549
7;537
8;524
9;514
10;513
11;513
12;511
13;512
14;514
15;514
0;512
1;513
2;515
3;517
4;518
5;519
6;518
7;515
8;512
9;511
10;512
11;512
12;511
13;514
14;513
15;509
0;505
1;496
2;484
3;480
4;482
5;481
6;476
7;476
8;480
9;481
10;484
11;487
12;487
13;483
14;478
15;483
0;493
1;497
2;500
3;508
4;505
5;499
6;499
7;500
8;503
9;501
10;498
11;495
12;492
13;492
14;491
15;487
0;483
1;479
2;478
3;480
4;479
5;477
6;476
7;477
8;479
9;480
10;480
11;478
12;475
13;478
14;482
15;480
0;477
1;476
2;477
3;477
4;478
5;479
6;479
7;478
8;479
9;479
10;477
11;479
12;480
13;479
14;475
15;472
0;469
1;468
2;468
3;466
4;464
5;465
6;467
7;468
8;468
9;467
10;466
11;466
12;467
13;467
14;470
15;476
0;480
1;483
2;487
3;487
4;487
5;486
6;476
7;466
8;462
9;463
10;467
11;464
12;454
13;454
14;465
15;471
0;471
1;469
2;470
3;476
4;483
5;484
6;486
7;487
8;486
9;488
10;487
11;481
12;478
13;479
14;483
15;482
0;479
1;478
2;479
3;483
4;486
5;489
6;492
7;493
8;493
9;495
10;498
11;500
12;502
13;502
14;500
15;499
0;499
1;501
2;502
3;502
4;505
5;503
6;500
7;484
8;461
9;445
10;441
11;451
12;460
13;470
14;481
15;487
0;484
1;478
2;470
3;464
4;466
5;469
6;467
7;465
8;467
9;471
10;476
11;480
12;483
13;484
14;484
15;484
0;483
1;482
2;482
3;480
4;477
5;476
6;478
7;482
8;482
9;481
10;478
11;476
12;476
13;472
14;470
15;471
0;472
1;472
2;473
3;472
4;473
5;475
6;478
7;482
8;484
9;484
10;486
11;486
12;485
13;490
14;494
15;495
0;499
1;502
2;503
3;505
4;510
5;512
6;515
7;515
8;513
9;517
10;523
11;524
12;523
13;525
14;518
15;510
0;507
1;505
2;508
3;519
4;537
5;542
6;532
7;524
8;514
9;518
10;530
11;542
12;544
13;536
14;519
15;504
0;491
1;486
2;491
3;498
4;505
5;512
6;520
7;525
8;529
9;533
10;538
11;543
12;549
13;556
14;555
15;551
0;550
1;548
2;539
3;534
4;530
5;528
6;529
7;529
8;528
9;524
10;521
11;514
12;514
13;516
14;521
15;523
0;527
1;530
2;530
3;530
4;529
5;529
6;531
7;531
8;530
9;530
10;531
11;531
12;530
13;527
14;525
15;529
0;539
1;552
2;566
3;570
4;572
5;571
6;566
7;560
8;551
9;551
10;561
11;573
12;583
13;595
14;594
15;584
0;583
1;585
2;595
3;617
4;626
5;620
6;609
7;601
8;586
9;575
10;575
11;573
12;569
13;561
14;549
15;536
0;527
1;515
2;498
3;477
4;448
5;414
6;382
7;358
8;345
9;343
10;348
11;355
12;362
13;375
14;392
15;412
0;430
1;443
2;455
3;466
4;470
5;472
6;473
7;477
8;479
9;485
10;496
11;507
12;515
13;520
14;528
15;536
0;539
1;543
2;547
3;551
4;555
5;563
6;567
7;566
8;559
9;551
10;550
11;555
12;555
13;557
14;556
15;555
0;561
1;558
2;552
3;551
4;542
5;529
6;518
7;508
8;508
9;512
10;514
11;517
12;521
13;518
14;513
15;509
0;507
1;507
2;508
3;501
4;492
5;489
6;496
7;502
8;513
9;523
10;518
11;509
12;507
13;504
14;500
15;502
0;503
1;506
2;510
3;511
4;512
5;512
6;511
7;510
8;511
9;511
10;511
11;511
12;510
13;510
14;511
15;512
0;511
1;508
2;503
3;500
4;497
5;494
6;489
7;485
8;482
9;480
10;477
11;479
12;481
13;482
14;485
15;486
0;488
1;490
2;489
3;489
4;485
5;484
6;481
7;479
8;481
9;484
10;499
11;505
12;498
13;494
14;485
15;471
0;455
1;448
2;447
3;448
4;449
5;449
6;451
7;455
8;456
9;456
10;458
11;464
12;468
13;470
14;466
15;465
0;463
1;462
2;464
3;466
4;466
5;459
6;453
7;454
8;454
9;453
10;458
11;465
12;471
13;475
14;479
15;484
0;484
1;479
2;479
3;482
4;485
5;489
6;491
7;493
8;492
9;493
10;489
11;484
12;478
13;473
14;471
15;471
0;471
1;472
2;473
3;473
4;475
5;480
6;485
7;485
8;481
9;481
10;480
11;475
12;470
13;470
14;474
15;478
0;480
1;486
2;486
3;485
4;484
5;487
6;493
7;497
8;495
9;489
10;481
11;474
12;471
13;473
14;476
15;475
0;478
1;483
2;484
3;483
4;485
5;492
6;497
7;499
8;501
9;498
10;493
11;489
12;489
13;487
14;483
15;483
0;480
1;478
2;473
3;472
4;474
5;476
6;478
7;480
8;476
9;475
10;474
11;475
12;474
13;474
14;480
15;485
0;486
1;484
2;480
3;479
4;479
5;479
6;479
7;482
8;489
9;495
10;493
11;487
12;486
13;489
14;499
15;514
0;512
1;496
2;480
3;469
4;465
5;459
6;455
7;456
8;453
9;458
10;470
11;473
12;468
13;462
14;459
15;457
0;465
1;475
2;480
3;485
4;487
5;485
6;480
7;478
8;481
9;486
10;487
11;491
12;489
13;488
14;483
15;479
0;484
1;490
2;496
3;499
4;495
5;493
6;492
7;486
8;481
9;481
10;482
11;484
12;489
13;494
14;497
15;498
0;504
1;512
2;519
3;523
4;524
5;521
6;518
7;519
8;524
9;530
10;536
11;540
12;537
13;534
14;537
15;542
0;544
1;545
2;548
3;555
4;558
5;555
6;552
7;550
8;556
9;556
10;537
11;514
12;504
13;497
14;500
15;506
0;511
1;517
2;523
3;530
4;534
5;527
6;518
7;514
8;510
9;510
10;514
11;517
12;519
13;519
14;519
15;519
0;520
1;519
2;520
3;520
4;519
5;519
6;519
7;520
8;521
9;524
10;525
11;528
12;532
13;536
14;541
15;549
0;555
1;555
2;552
3;552
4;557
5;564
6;574
7;583
8;589
9;592
10;593
11;598
12;600
13;597
14;598
15;603
0;606
1;603
2;596
3;590
4;585
5;581
6;575
7;564
8;553
9;542
10;526
11;511
12;495
13;475
14;458
15;440
0;417
1;382
2;348
3;323
4;307
5;308
6;317
7;324
8;343
9;359
10;373
11;383
12;396
13;406
14;410
15;415
0;421
1;426
2;430
3;435
4;447
5;459
6;461
7;468
8;480
9;490
10;496
11;497
12;497
13;496
14;499
15;505
0;517
1;530
2;539
3;543
4;543
5;543
6;548
7;550
8;549
9;547
10;547
11;549
12;550
13;548
14;543
15;541
0;543
1;545
2;542
3;537
4;535
5;534
6;536
7;537
8;531
9;524
10;522
11;519
12;522
13;524
14;530
15;538
0;539
1;536
2;534
3;526
4;503
5;484
6;475
7;475
8;473
9;476
10;481
11;481
12;475
13;472
14;478
15;486
0;491
1;493
2;496
3;502
4;508
5;510
6;505
7;497
8;494
9;496
10;497
11;495
12;494
13;489
14;486
15;480
0;480
1;485
2;490
3;493
4;493
5;491
6;489
7;487
8;487
9;489
10;485
11;486
12;486
13;486
14;485
15;485
0;485
1;487
2;488
3;487
4;488
5;493
6;499
7;484
8;469
9;463
10;459
11;458
12;460
13;462
14;463
15;464
0;471
1;483
2;495
3;489
4;483
5;473
6;460
7;448
8;436
9;434
10;440
11;448
12;452
13;455
14;460
15;453
0;446
1;451
2;457
3;461
4;464
5;459
6;453
7;451
8;452
9;456
10;455
11;459
12;465
13;464
14;461
15;459
0;460
1;463
2;467
3;471
4;473
5;472
6;472
7;474
8;473
9;477
10;482
11;484
12;483
13;483
14;483
15;483
0;481
1;475
2;473
3;474
4;476
5;475
6;472
7;470
8;468
9;467
10;466
11;465
12;465
13;465
14;469
15;474
0;476
1;483
2;493
3;506
4;517
5;519
6;504
7;483
8;466
9;460
10;454
11;457
12;465
13;472
14;478
15;486
0;493
1;496
2;503
3;503
4;500
5;505
6;505
7;496
8;495
9;502
10;505
11;507
12;504
13;494
14;474
15;462
0;460
1;460
2;461
3;466
4;474
5;475
6;474
7;477
8;483
9;487
10;485
11;486
12;493
13;497
14;500
15;495
0;487
1;487
2;493
3;497
4;498
5;499
6;499
7;496
8;492
9;489
10;489
11;491
12;487
13;484
14;486
15;486
0;486
1;487
2;484
3;479
4;478
5;478
6;480
7;480
8;480
9;483
10;480
11;483
12;487
13;484
14;482
15;479
0;475
1;472
2;468
3;469
4;471
5;474
6;481
7;486
8;488
9;485
10;488
11;498
12;503
13;498
14;493
15;498
0;507
1;516
2;520
3;516
4;508
5;505
6;507
7;505
8;507
9;517
10;529
11;531
12;523
13;519
14;520
15;514
0;511
1;521
2;534
3;540
4;547
5;546
6;535
7;531
8;531
9;533
10;534
11;532
12;532
13;535
14;534
15;532
0;535
1;533
2;527
3;525
4;533
5;543
6;550
7;552
8;550
9;547
10;546
11;548
12;556
13;559
14;556
15;552
0;550
1;549
2;550
3;550
4;550
5;551
6;550
7;550
8;550
9;552
10;551
11;547
12;545
13;543
14;543
15;551
0;562
1;570
2;580
3;585
4;581
5;561
6;541
7;539
8;542
9;548
10;546
11;538
12;537
13;540
14;546
15;555
0;560
1;567
2;579
3;591
4;595
5;598
6;606
7;610
8;611
9;612
10;615
11;619
12;620
13;616
14;614
15;611
0;608
1;598
2;588
3;579
4;569
5;556
6;538
7;520
8;509
9;494
10;472
11;443
12;408
13;371
14;338
15;317
0;307
1;307
2;311
3;319
4;331
5;347
6;363
7;379
8;396
9;413
10;428
11;441
12;454
13;469
14;487
15;502
0;511
1;514
2;519
3;523
4;532
5;531
6;527
7;526
8;530
9;532
10;530
11;526
12;530
13;536
14;541
15;554
0;571
1;582
2;583
3;578
4;572
5;567
6;571
7;579
8;585
9;577
10;569
11;568
12;568
13;567
14;563
15;563
0;566
1;564
2;562
3;565
4;568
5;568
6;559
7;547
8;538
9;529
10;524
11;517
12;513
13;511
14;510
15;510
0;514
1;519
2;521
3;520
4;519
5;517
6;517
7;520
8;521
9;518
10;515
11;513
12;513
13;515
14;515
15;513
0;512
1;512
2;513
3;517
4;519
5;513
6;500
7;491
8;486
9;489
10;496
11;499
12;502
13;498
14;489
15;476
0;470
1;469
2;468
3;468
4;472
5;479
6;486
7;489
8;487
9;487
10;486
11;484
12;484
13;486
14;489
15;489
0;491
1;496
2;503
3;514
4;524
5;523
6;514
7;508
8;504
9;499
10;497
11;498
12;496
13;490
14;487
15;486
0;483
1;475
2;467
3;462
4;460
5;463
6;468
7;468
8;468
9;470
10;474
11;478
12;480
13;477
14;475
15;475
0;476
1;476
2;474
3;478
4;482
5;483
6;481
7;479
8;474
9;468
10;462
11;456
12;456
13;459
14;463
15;470
0;479
1;481
2;477
3;474
4;471
5;467
6;469
7;473
8;471
9;468
10;474
11;482
12;485
13;491
14;493
15;491
0;483
1;472
2;466
3;462
4;465
5;474
6;477
7;471
8;470
9;471
10;466
11;459
12;461
13;476
14;489
15;496
0;500
1;487
2;475
3;472
4;472
5;476
6;483
7;487
8;498
9;515
10;523
11;523
12;511
13;499
14;486
15;481
0;482
1;480
2;481
3;481
4;483
5;485
6;484
7;484
8;481
9;480
10;483
11;486
12;492
13;498
14;503
15;506
0;505
1;504
2;502
3;502
4;507
5;506
6;506
7;507
8;507
9;508
10;509
11;508
12;507
13;506
14;507
15;505
0;504
1;503
2;502
3;501
4;503
5;504
6;503
7;499
8;500
9;504
10;511
11;516
12;516
13;508
14;494
15;472
0;456
1;449
2;454
3;463
4;472
5;481
6;483
7;483
8;483
9;480
10;476
11;484
12;496
13;507
14;508
15;500
0;494
1;490
2;488
3;487
4;487
5;488
6;492
7;493
8;490
9;484
10;481
11;488
12;496
13;502
14;509
15;514
0;514
1;514
2;515
3;520
4;529
5;533
6;536
7;540
8;540
9;538
10;543
11;550
12;557
13;561
14;562
15;565
0;568
1;566
2;562
3;561
4;564
5;570
6;573
7;573
8;574
9;575
10;577
11;571
12;565
13;567
14;571
15;572
0;568
1;562
2;561
3;555
4;545
5;542
6;541
7;542
8;542
9;542
10;549
11;562
12;572
13;573
14;564
15;558
0;553
1;545
2;539
3;543
4;552
5;552
6;547
7;552
8;562
9;564
10;564
11;559
12;547
13;537
14;532
15;534
0;533
1;535
2;537
3;540
4;546
5;551
6;555
7;561
8;567
9;573
10;578
11;585
12;596
13;608
14;618
15;625
0;627
1;631
2;639
3;642
4;642
5;644
6;645
7;637
8;631
9;625
10;617
11;610
12;595
13;580
14;568
15;556
0;542
1;528
2;515
3;497
4;475
5;454
6;428
7;395
8;355
9;322
10;306
11;301
12;302
13;302
14;306
15;317
0;333
1;352
2;372
3;396
4;423
5;452
6;480
7;500
8;515
9;527
10;536
11;542
12;549
13;560
14;571
15;576
0;578
1;580
2;579
3;579
4;582
5;588
6;590
7;589
8;586
9;583
10;585
11;589
12;591
13;586
14;581
15;577
0;575
1;576
2;580
3;577
4;566
5;559
6;560
7;560
8;557
9;551
10;545
11;542
12;542
13;545
14;551
15;553
0;551
1;545
2;540
3;535
4;532
5;527
6;524
7;526
8;529
9;532
10;534
11;536
12;543
13;554
14;555
15;549
0;548
1;545
2;529
3;502
4;492
5;495
6;497
7;498
8;501
9;507
10;514
11;521
12;523
13;523
14;521
15;516
0;517
1;513
2;511
3;519
4;526
5;531
6;529
7;523
8;519
9;519
10;521
11;514
12;507
13;499
14;497
15;503
0;507
1;505
2;500
3;500
4;501
5;500
6;499
7;499
8;500
9;498
10;497
11;497
12;497
13;498
14;496
15;496
0;495
1;494
2;492
3;490
4;491
5;492
6;491
7;492
8;494
9;496
10;495
11;494
12;492
13;489
14;487
15;486
0;486
1;485
2;488
3;487
4;481
5;481
6;483
7;485
8;486
9;488
10;482
11;472
12;470
13;473
14;475
15;472
0;473
1;480
2;487
3;491
4;498
5;503
6;496
7;484
8;474
9;463
10;461
11;463
12;470
13;474
14;476
15;475
0;479
1;478
2;480
3;486
4;492
5;494
6;493
7;494
8;495
9;494
10;494
11;498
12;502
13;503
14;504
15;504
0;504
1;499
2;490
3;485
4;486
5;487
6;490
7;491
8;498
9;508
10;511
11;508
12;506
13;508
14;508
15;507
0;511
1;514
2;517
3;519
4;521
5;523
6;526
7;534
8;536
9;536
10;530
11;524
12;517
13;514
14;509
15;505
0;504
1;502
2;503
3;505
4;503
5;500
6;501
7;504
8;506
9;504
10;504
11;506
12;509
13;513
14;515
15;515
0;513
1;512
2;515
3;514
4;506
5;503
6;508
7;512
8;517
9;527
10;539
11;547
12;543
13;518
14;499
15;494
0;492
1;495
2;499
3;499
4;491
5;483
6;480
7;480
8;481
9;483
10;490
11;491
12;483
13;479
14;482
15;486
0;492
1;495
2;496
3;498
4;504
5;510
6;510
7;505
8;504
9;506
10;509
11;515
12;519
13;523
14;526
15;521
0;511
1;509
2;510
3;511
4;512
5;515
6;519
7;521
8;523
9;523
10;524
11;526
12;527
13;530
14;531
15;532
0;540
1;550
2;563
3;572
4;564
5;554
6;549
7;550
8;563
9;572
10;573
11;571
12;572
13;576
14;580
15;584
0;589
1;580
2;563
3;564
4;568
5;566
6;559
7;559
8;560
9;556
10;556
11;561
12;561
13;561
14;562
15;564
0;568
1;563
2;558
3;557
4;556
5;558
6;560
7;560
8;557
9;553
10;553
11;555
12;555
13;555
14;557
15;559
0;555
1;554
2;554
3;555
4;556
5;555
6;552
7;552
8;548
9;548
10;549
11;552
12;562
13;566
14;559
15;557
0;560
1;569
2;580
3;589
4;597
5;600
6;602
7;598
8;592
9;597
10;608
11;621
12;632
13;639
14;646
15;648
0;648
1;652
2;659
3;660
4;655
5;649
6;641
7;623
8;604
9;584
10;568
11;550
12;532
13;518
14;499
15;471
0;441
1;408
2;370
3;338
4;319
5;312
6;312
7;318
8;324
9;332
10;345
11;367
12;393
13;417
14;438
15;458
0;470
1;476
2;480
3;487
4;493
5;493
6;494
7;504
8;519
9;532
10;541
11;550
12;558
13;561
14;562
15;568
0;572
1;571
2;575
3;581
4;590
5;592
6;590
7;593
8;591
9;589
10;590
11;589
12;584
13;582
14;583
15;584
0;582
1;577
2;573
3;569
4;564
5;562
6;564
7;565
8;561
9;556
10;549
11;545
12;545
13;546
14;548
15;549
0;551
1;551
2;551
3;547
4;545
5;542
6;540
7;537
8;533
9;530
10;528
11;528
12;529
13;530
14;533
15;538
0;540
1;540
2;539
3;536
4;532
5;527
6;521
7;518
8;512
9;511
10;515
11;527
12;542
13;552
14;550
15;541
0;532
1;528
2;522
3;507
4;500
5;500
6;494
7;488
8;481
9;475
10;475
11;480
12;482
13;479
14;479
15;483
0;487
1;491
2;496
3;504
4;511
5;514
6;509
7;503
8;494
9;487
10;485
11;489
12;492
13;493
14;495
15;500
0;505
1;503
2;501
3;502
4;503
5;504
6;503
7;500
8;500
9;500
10;498
11;496
12;495
13;495
14;496
15;498
0;499
1;499
2;500
3;504
4;505
5;503
6;500
7;497
8;488
9;488
10;492
11;496
12;499
13;495
14;498
15;503
0;502
1;492
2;480
3;466
4;460
5;462
6;465
7;467
8;469
9;473
10;482
11;495
12;504
13;511
14;500
15;483
0;475
1;476
2;483
3;494
4;499
5;496
6;495
7;494
8;491
9;489
10;492
11;488
12;484
13;484
14;485
15;487
0;493
1;502
2;510
3;514
4;521
5;531
6;540
7;548
8;547
9;542
10;527
11;508
12;503
13;499
14;500
15;503
0;500
1;499
2;499
3;501
4;501
5;504
6;505
7;505
8;505
9;502
10;499
11;500
12;504
13;509
14;510
15;511
0;511
1;508
2;504
3;499
4;496
5;496
6;504
7;515
8;525
9;532
10;533
11;524
12;512
13;500
14;497
15;506
0;508
1;507
2;500
3;498
4;503
5;508
6;511
7;516
8;518
9;502
10;480
11;470
12;469
13;472
14;479
15;486
0;489
1;494
2;500
3;502
4;492
5;481
6;472
7;467
8;467
9;469
10;473
11;478
12;481
13;485
14;490
15;496
0;503
1;509
2;514
3;518
4;517
5;508
6;499
7;497
8;504
9;513
10;521
11;528
12;538
13;539
14;539
15;543
0;540
1;531
2;523
3;518
4;521
5;523
6;523
7;526
8;531
9;535
10;534
11;533
12;537
13;543
14;545
15;546
0;556
1;559
2;556
3;555
4;554
5;553
6;554
7;553
8;545
9;547
10;549
11;546
12;546
13;546
14;547
15;546
0;548
1;551
2;556
3;565
4;575
5;574
6;571
7;563
8;550
9;534
10;524
11;524
12;532
13;538
14;540
15;545
0;548
1;543
2;533
3;533
4;535
5;535
6;534
7;533
8;531
9;531
10;532
11;538
12;542
13;541
14;542
15;540
0;540
1;543
2;548
3;551
4;547
5;542
6;542
7;547
8;553
9;557
10;563
11;571
12;569
13;568
14;571
15;577
0;587
1;590
2;588
3;589
4;592
5;598
6;604
7;605
8;605
9;603
10;600
11;601
12;601
13;600
14;600
15;598
0;595
1;587
2;582
3;572
4;558
5;547
6;532
7;514
8;495
9;474
10;457
11;436
12;417
13;399
14;384
15;367
0;350
1;355
2;368
3;378
4;392
5;414
6;436
7;450
8;453
9;450
10;450
11;449
12;448
13;454
14;462
15;469
0;481
1;494
2;497
3;502
4;508
5;516
6;527
7;536
8;542
9;547
10;551
11;548
12;543
13;544
14;548
15;549
0;550
1;551
2;554
3;552
4;547
5;548
6;549
7;550
8;548
9;544
10;543
11;542
12;540
13;540
14;541
15;541
0;542
1;543
2;543
3;543
4;545
5;545
6;541
7;534
8;530
9;527
10;527
11;525
12;523
13;521
14;513
15;502
0;498
1;498
2;500
3;501
4;502
5;504
6;501
7;502
8;507
9;514
10;511
11;508
12;508
13;507
14;502
15;498
0;493
1;483
2;476
3;479
4;486
5;490
6;488
7;490
8;490
9;492
10;488
11;485
12;486
13;488
14;489
15;493
0;500
1;502
2;493
3;489
4;489
5;492
6;496
7;498
8;497
9;494
10;492
11;494
12;499
13;499
14;496
15;496
0;496
1;494
2;492
3;490
4;485
5;485
6;487
7;491
8;493
9;492
10;493
11;494
12;492
13;487
14;483
15;481
0;480
1;480
2;480
3;482
4;485
5;490
6;497
7;503
8;506
9;500
10;489
11;479
12;471
13;468
14;467
15;469
0;472
1;477
2;478
3;475
4;470
5;471
6;472
7;467
8;463
9;463
10;464
11;462
12;462
13;461
14;461
15;463
0;468
1;476
2;479
3;479
4;471
5;469
6;475
7;481
8;489
9;499
10;499
11;493
12;481
13;468
14;457
15;451
0;460
1;468
2;474
3;478
4;482
5;487
6;493
7;498
8;497
9;495
10;497
11;497
12;495
13;495
14;497
15;500
0;503
1;500
2;495
3;492
4;494
5;496
6;498
7;501
8;504
9;509
10;509
11;512
12;512
13;510
14;511
15;514
0;515
1;512
2;510
3;508
4;507
5;508
6;509
7;508
8;506
9;505
10;505
11;504
12;503
13;501
14;500
15;494
0;488
1;495
2;501
3;506
4;501
5;499
6;490
7;475
8;479
9;488
10;497
11;504
12;504
13;496
14;487
15;489
0;491
1;481
2;476
3;472
4;471
5;473
6;477
7;480
8;481
9;479
10;472
11;473
12;479
13;484
14;487
15;488
0;490
1;490
2;492
3;497
4;501
5;505
6;507
7;506
8;507
9;511
10;518
11;523
12;522
13;520
14;516
15;508
0;500
1;493
2;492
3;496
4;505
5;509
6;511
7;513
8;517
9;522
10;527
11;532
12;536
13;541
14;540
15;542
0;544
1;546
2;543
3;539
4;519
5;501
6;506
7;517
8;521
9;520
10;522
11;531
12;529
13;529
14;532
15;529
0;523
1;521
2;523
3;524
4;520
5;520
6;526
7;536
8;543
9;548
10;552
11;554
12;553
13;547
14;539
15;532
0;534
1;537
2;539
3;537
4;536
5;536
6;536
7;532
8;532
9;534
10;538
11;541
12;541
13;539
14;539
15;540
0;540
1;541
2;542
3;541
4;541
5;546
6;552
7;556
8;554
9;551
10;555
11;552
12;542
13;536
14;530
15;529
0;531
1;535
2;537
3;540
4;549
5;558
6;567
7;577
8;586
9;592
10;592
11;590
12;582
13;574
14;575
15;581
0;581
1;584
2;591
3;595
4;594
5;590
6;584
7;577
8;571
9;568
10;564
11;562
12;554
13;541
14;527
15;515
0;502
1;487
2;469
3;448
4;421
5;396
6;372
7;356
8;350
9;356
10;369
11;382
12;397
13;413
14;427
15;440
0;454
1;460
2;465
3;469
4;473
5;477
6;480
7;484
8;490
9;498
10;509
11;521
12;527
13;528
14;530
15;535
0;545
1;553
2;559
3;565
4;568
5;567
6;560
7;551
8;547
9;546
10;548
11;548
12;544
13;543
14;545
15;546
0;547
1;548
2;546
3;543
4;540
5;537
6;534
7;532
8;527
9;522
10;522
11;523
12;524
13;525
14;527
15;525
0;523
1;522
2;521
3;520
4;519
5;516
6;512
7;509
8;510
9;511
10;510
11;509
12;507
13;506
14;509
15;510
0;513
1;521
2;524
3;520
4;511
5;500
6;490
7;480
8;473
9;471
10;475
11;482
12;493
13;494
14;489
15;480
0;471
1;470
2;473
3;476
4;478
5;479
6;482
7;489
8;490
9;487
10;484
11;480
12;478
13;476
14;471
15;472
0;479
1;490
2;499
3;504
4;502
5;491
6;466
7;452
8;454
9;459
10;462
11;460
12;459
13;466
14;470
15;475
0;481
1;483
2;476
3;477
4;485
5;487
6;484
7;473
8;459
9;455
10;453
11;454
12;454
13;455
14;454
15;451
0;450
1;450
2;450
3;450
4;453
5;456
6;459
7;459
8;460
9;457
10;452
11;454
12;457
13;463
14;466
15;466
0;471
1;477
2;475
3;461
4;454
5;455
6;460
7;459
8;446
9;441
10;446
11;451
12;453
13;455
14;462
15;470
0;479
1;481
2;478
3;481
4;483
5;486
6;491
7;491
8;493
9;498
10;499
11;496
12;491
13;489
14;493
15;498
0;496
1;480
2;474
3;482
4;489
5;495
6;501
7;502
8;497
9;491
10;490
11;492
12;496
13;494
14;492
15;493
0;494
1;491
2;488
3;487
4;484
5;484
6;492
7;502
8;505
9;510
10;519
11;525
12;528
13;523
14;510
15;488
0;469
1;459
2;457
3;464
4;475
5;486
6;492
7;496
8;502
9;507
10;510
11;506
12;501
13;506
14;512
15;512
0;509
1;508
2;511
3;515
4;514
5;507
6;501
7;504
8;508
9;512
10;516
11;520
12;520
13;518
14;516
15;511
0;506
1;506
2;505
3;498
4;495
5;493
6;494
7;498
8;502
9;506
10;504
11;502
12;495
13;482
14;473
15;472
0;474
1;476
2;478
3;483
4;487
5;498
6;511
7;511
8;507
9;510
10;518
11;521
12;524
13;528
14;517
15;503
0;495
1;485
2;487
3;496
4;504
5;508
6;509
7;505
8;513
9;522
10;520
11;518
12;521
13;528
14;535
15;537
0;530
1;513
2;508
3;514
4;517
5;518
6;524
7;530
8;536
9;541
10;541
11;546
12;551
13;554
14;555
15;554
0;557
1;561
2;557
3;554
4;550
5;549
6;548
7;551
8;551
9;551
10;555
11;557
12;560
13;560
14;558
15;556
0;547
1;536
2;531
3;531
4;534
5;538
6;540
7;542
8;545
9;555
10;571
11;582
12;575
13;552
14;545
15;548
0;541
1;538
2;533
3;528
4;535
5;539
6;533
7;525
8;524
9;526
10;531
11;528
12;524
13;533
14;544
15;550
0;556
1;563
2;568
3;569
4;569
5;571
6;575
7;580
8;587
9;596
10;605
11;613
12;615
13;618
14;621
15;622
0;621
1;615
2;613
3;610
4;604
5;593
6;584
7;575
8;568
9;561
10;549
11;541
12;534
13;519
14;500
15;475
0;443
1;407
2;364
3;332
4;319
5;320
6;328
7;337
8;346
9;354
10;361
11;374
12;392
13;410
14;428
15;444
0;455
1;465
2;477
3;483
4;488
5;489
6;486
7;492
8;498
9;499
10;505
11;516
12;534
13;548
14;555
15;552
0;543
1;527
2;531
3;542
4;544
5;535
6;528
7;526
8;535
9;548
10;557
11;558
12;562
13;568
14;566
15;561
0;556
1;543
2;531
3;532
4;539
5;538
6;530
7;525
8;521
9;516
10;517
11;519
12;524
13;522
14;524
15;526
0;525
1;522
2;518
3;517
4;516
5;516
6;514
7;512
8;512
9;514
10;512
11;510
12;507
13;507
14;507
15;508
0;509
1;507
2;502
3;497
4;494
5;495
6;503
7;517
8;528
9;530
10;519
11;496
12;467
13;461
14;466
15;479
0;484
1;486
2;489
3;489
4;483
5;477
6;482
7;487
8;488
9;485
10;480
11;479
12;477
13;477
14;487
15;499
0;512
1;519
2;523
3;512
4;498
5;495
6;489
7;479
8;472
9;459
10;453
11;453
12;455
13;460
14;464
15;469
0;471
1;468
2;471
3;476
4;477
5;476
6;478
7;480
8;481
9;483
10;480
11;475
12;469
13;462
14;460
15;462
0;465
1;468
2;472
3;475
4;472
5;471
6;470
7;467
8;467
9;466
10;469
11;470
12;471
13;470
14;472
15;471
0;471
1;472
2;474
3;475
4;476
5;475
6;472
7;476
8;481
9;486
10;487
11;485
12;484
13;481
14;472
15;461
0;443
1;423
2;420
3;428
4;430
5;436
6;447
7;447
8;448
9;456
10;461
11;468
12;479
13;488
14;489
15;490
0;496
1;494
2;489
3;483
4;469
5;465
6;470
7;476
8;485
9;489
10;480
11;475
12;471
13;472
14;476
15;481
0;485
1;487
2;489
3;488
4;488
5;490
6;492
7;497
8;497
9;495
10;495
11;491
12;489
13;491
14;495
15;495
0;490
1;487
2;484
3;485
4;489
5;493
6;498
7;500
8;499
9;501
10;506
11;510
12;508
13;503
14;500
15;502
0;502
1;500
2;502
3;510
4;511
5;512
6;514
7;518
8;521
9;521
10;519
11;505
12;485
13;462
14;451
15;447
0;445
1;451
2;455
3;454
4;451
5;449
6;460
7;475
8;486
9;494
10;500
11;499
12;480
13;462
14;462
15;470
0;477
1;480
2;483
3;496
4;506
5;508
6;507
7;505
8;507
9;512
10;518
11;515
12;513
13;514
14;514
15;512
0;510
1;508
2;505
3;505
4;511
5;518
6;519
7;524
8;530
9;530
10;524
11;522
12;528
13;531
14;535
15;539
0;543
1;543
2;543
3;545
4;554
5;555
6;555
7;558
8;561
9;567
10;571
11;572
12;570
13;568
14;565
15;560
0;561
1;563
2;563
3;562
4;561
5;561
6;562
7;563
8;564
9;563
10;568
11;575
12;582
13;580
14;572
15;561
0;549
1;545
2;543
3;542
4;546
5;540
6;529
7;527
8;531
9;532
10;531
11;531
12;535
13;540
14;545
15;547
0;539
1;530
2;532
3;542
4;551
5;554
6;550
7;543
8;539
9;546
10;557
11;573
12;586
13;589
14;591
15;595
0;597
1;600
2;601
3;601
4;607
5;615
6;620
7;623
8;627
9;631
10;639
11;645
12;647
13;646
14;643
15;641
0;636
1;627
2;615
3;601
4;585
5;568
6;551
7;540
8;531
9;520
10;495
11;465
12;435
13;401
14;363
15;340
0;333
1;326
2;319
3;314
4;319
5;330
6;345
7;362
8;385
9;416
10;446
11;466
12;483
13;498
14;508
15;518
0;527
1;538
2;548
3;561
4;574
5;582
6;594
7;606
8;610
9;599
10;577
11;552
12;546
13;547
14;558
15;569
0;574
1;573
2;566
3;562
4;561
5;563
6;564
7;564
8;567
9;568
10;566
11;555
12;548
13;547
14;546
15;547
0;545
1;538
2;534
3;533
4;537
5;537
6;537
7;538
8;537
9;538
10;537
11;537
12;540
13;539
14;536
15;536
0;538
1;540
2;540
3;538
4;537
5;535
6;535
7;534
8;532
9;532
10;533
11;534
12;533
13;530
14;528
15;530
0;531
1;527
2;523
3;522
4;522
5;524
6;525
7;527
8;524
9;522
10;525
11;532
12;534
13;536
14;539
15;547
0;555
1;544
2;527
3;512
4;485
5;473
6;468
7;464
8;466
9;476
10;485
11;494
12;502
13;507
14;514
15;517
0;508
1;496
2;486
3;479
4;472
5;472
6;481
7;483
8;485
9;489
10;487
11;483
12;478
13;474
14;475
15;477
0;481
1;481
2;482
3;484
4;489
5;489
6;488
7;488
8;491
9;494
10;493
11;489
12;486
13;484
14;483
15;485
0;487
1;490
2;494
3;497
4;498
5;497
6;496
7;496
8;492
9;493
10;497
11;502
12;502
13;499
14;494
15;489
0;489
1;494
2;495
3;493
4;489
5;484
6;482
7;486
8;489
9;488
10;488
11;494
12;504
13;517
14;528
15;536
0;534
1;527
2;519
3;510
4;500
5;482
6;476
7;484
8;485
9;482
10;480
11;489
12;495
13;492
14;491
15;496
0;507
1;515
2;519
3;523
4;523
5;521
6;521
7;521
8;521
9;521
10;523
11;520
12;516
13;512
14;504
15;499
0;498
1;503
2;509
3;513
4;515
5;519
6;523
7;519
8;515
9;513
10;512
11;511
12;511
13;512
14;513
15;512
0;511
1;515
2;512
3;511
4;508
5;505
6;509
7;514
8;517
9;522
10;525
11;526
12;523
13;519
14;517
15;516
0;515
1;514
2;517
3;521
4;527
5;532
6;533
7;531
8;531
9;528
10;522
11;512
12;501
13;494
14;494
15;496
0;498
1;499
2;494
3;489
4;492
5;494
6;497
7;501
8;504
9;513
10;517
11;528
12;531
13;520
14;512
15;499
0;489
1;494
2;506
3;510
4;507
5;510
6;517
7;521
8;527
9;526
10;521
11;516
12;512
13;509
14;507
15;506
0;508
1;510
2;509
3;515
4;524
5;531
6;538
7;545
8;552
9;559
10;566
11;568
12;565
13;562
14;560
15;560
0;561
1;558
2;560
3;562
4;564
5;566
6;568
7;570
8;569
9;573
10;575
11;573
12;568
13;561
14;556
15;557
0;563
1;566
2;566
3;565
4;566
5;565
6;565
7;568
8;568
9;569
10;571
11;571
12;576
13;578
14;574
15;571
0;570
1;569
2;566
3;567
4;568
5;568
6;572
7;575
8;576
9;570
10;566
11;574
12;587
13;595
14;593
15;579
0;557
1;539
2;529
3;530
4;540
5;543
6;551
7;551
8;536
9;525
10;536
11;555
12;572
13;591
14;602
15;609
0;616
1;624
2;635
3;639
4;643
5;648
6;653
7;654
8;652
9;644
10;641
11;645
12;642
13;630
14;617
15;605
0;593
1;583
2;571
3;554
4;539
5;524
6;502
7;477
8;440
9;396
10;359
11;330
12;313
13;307
14;306
15;310
0;320
1;336
2;352
3;368
4;392
5;420
6;445
7;463
8;480
9;497
10;504
11;504
12;518
13;530
14;536
15;537
0;538
1;536
2;544
3;556
4;562
5;563
6;564
7;568
8;574
9;585
10;596
11;601
12;599
13;593
14;596
15;599
0;599
1;594
2;592
3;590
4;588
5;590
6;592
7;592
8;590
9;573
10;545
11;526
12;513
13;508
14;514
15;523
0;523
1;520
2;519
3;522
4;524
5;528
6;531
7;534
8;537
9;538
10;528
11;512
12;508
13;504
14;506
15;507
0;505
1;505
2;505
3;505
4;506
5;505
6;510
7;521
8;524
9;524
10;519
11;513
12;509
13;509
14;507
15;505
0;507
1;506
2;507
3;509
4;512
5;513
6;519
7;527
8;529
9;525
10;521
11;523
12;525
13;525
14;526
15;526
0;515
1;503
2;495
3;496
4;498
5;497
6;496
7;496
8;492
9;488
10;487
11;491
12;494
13;498
14;501
15;493
0;484
1;491
2;498
3;495
4;480
5;475
6;482
7;483
8;472
9;460
10;457
11;460
12;462
13;455
14;446
15;445
0;451
1;453
2;454
3;454
4;456
5;457
6;457
7;460
8;466
9;470
10;467
11;462
12;462
13;462
14;472
15;478
0;480
1;475
2;464
3;461
4;467
5;467
6;467
7;466
8;465
9;462
10;463
11;462
12;462
13;459
14;455
15;456
0;454
1;453
2;458
3;459
4;458
5;460
6;464
7;468
8;476
9;482
10;487
11;492
12;493
13;496
14;494
15;487
0;480
1;479
2;483
3;490
4;497
5;499
6;498
7;496
8;493
9;493
10;495
11;491
12;487
13;489
14;494
15;503
0;509
1;510
2;505
3;492
4;470
5;455
6;457
7;464
8;467
9;465
10;463
11;464
12;470
13;475
14;476
15;481
0;484
1;486
2;488
3;488
4;486
5;490
6;489
7;489
8;494
9;491
10;478
11;464
12;462
13;457
14;454
15;455
0;465
1;480
2;489
3;499
4;503
5;489
6;482
7;482
8;481
9;480
10;483
11;481
12;480
13;478
14;475
15;474
0;473
1;473
2;475
3;476
4;474
5;474
6;475
7;476
8;479
9;479
10;478
11;476
12;477
13;477
14;477
15;474
0;473
1;471
2;473
3;477
4;480
5;482
6;481
7;483
8;489
9;492
10;491
11;491
12;494
13;487
14;482
15;485
0;491
1;495
2;497
3;500
4;495
5;481
6;475
7;475
8;476
9;472
10;475
11;479
12;485
13;496
14;500
15;497
0;488
1;489
2;490
3;489
4;490
5;499
6;507
7;509
8;509
9;513
10;525
11;530
12;529
13;528
14;529
15;528
0;523
1;519
2;519
3;517
4;514
5;518
6;525
7;529
8;533
9;535
10;541
11;542
12;542
13;542
14;538
15;531
0;526
1;523
2;523
3;524
4;523
5;523
6;523
7;524
8;526
9;528
10;532
11;534
12;534
13;535
14;541
15;545
0;547
1;550
2;545
3;541
4;537
5;532
6;535
7;535
8;521
9;509
10;505
11;507
12;510
13;515
14;523
15;528
0;532
1;530
2;533
3;537
4;538
5;536
6;533
7;535
8;543
9;555
10;570
11;582
12;587
13;590
14;582
15;565
0;556
1;551
2;556
3;565
4;569
5;572
6;575
7;578
8;580
9;579
10;574
11;571
12;571
13;567
14;559
15;552
0;540
1;523
2;499
3;463
4;422
5;388
6;360
7;333
8;319
9;315
10;323
11;337
12;358
13;380
14;401
15;419
0;436
1;444
2;448
3;452
4;453
5;456
6;459
7;460
8;466
9;474
10;487
11;502
12;521
13;532
14;543
15;553
0;556
1;559
2;549
3;534
4;527
5;526
6;527
7;530
8;534
9;541
10;546
11;551
12;556
13;561
14;567
15;569
0;572
1;573
2;568
3;561
4;557
5;556
6;560
7;562
8;562
9;561
10;563
11;561
12;553
13;547
14;542
15;540
0;538
1;535
2;540
3;545
4;550
5;547
6;536
7;526
8;519
9;521
10;524
11;527
12;531
13;527
14;523
15;523
0;524
1;528
2;533
3;536
4;536
5;532
6;529
7;531
8;533
9;534
10;537
11;541
12;544
13;543
14;535
15;522
0;519
1;516
2;515
3;515
4;516
5;518
6;520
7;527
8;532
9;539
10;543
11;542
12;535
13;525
14;519
15;523
0;523
1;527
2;521
3;511
4;509
5;507
6;505
7;502
8;495
9;493
10;495
11;499
12;503
13;511
14;514
15;508
0;506
1;508
2;511
3;510
4;512
5;516
6;520
7;526
8;527
9;526
10;526
11;530
12;528
13;521
14;513
15;510
0;510
1;511
2;513
3;515
4;517
5;519
6;521
7;522
8;519
9;518
10;516
11;512
12;510
13;508
14;505
15;507
0;511
1;512
2;510
3;510
4;509
5;507
6;506
7;504
8;504
9;502
10;502
11;503
12;507
13;510
14;515
15;524
0;536
1;547
2;548
3;547
4;532
5;515
6;511
7;512
8;518
9;512
10;496
11;487
12;489
13;494
14;494
15;497
0;501
1;508
2;519
3;528
4;533
5;526
6;514
7;502
8;495
9;496
10;492
11;486
12;483
13;482
14;484
15;486
0;492
1;499
2;502
3;507
4;512
5;515
6;519
7;523
8;526
9;525
10;523
11;520
12;518
13;516
14;513
15;513
0;514
1;515
2;515
3;513
4;513
5;516
6;515
7;515
8;515
9;516
10;516
11;511
12;509
13;507
14;504
15;503
0;500
1;500
2;502
3;506
4;509
5;511
6;513
7;514
8;513
9;510
10;508
11;507
12;508
13;507
14;507
15;507
0;509
1;514
2;517
3;515
4;513
5;520
6;529
7;538
8;542
9;542
10;535
11;521
12;510
13;496
14;489
15;482
0;475
1;466
2;463
3;459
4;457
5;464
6;480
7;488
8;494
9;503
10;491
11;472
12;467
13;474
14;486
15;497
0;506
1;513
2;516
3;518
4;519
5;523
6;525
7;527
8;530
9;532
10;532
11;532
12;534
13;535
14;534
15;534
0;532
1;531
2;531
3;527
4;527
5;528
6;532
7;535
8;538
9;542
10;542
11;542
12;539
13;536
14;538
15;544
0;549
1;555
2;560
3;563
4;564
5;563
6;559
7;561
8;565
9;564
10;558
11;555
12;554
13;557
14;560
15;563
0;562
1;561
2;561
3;560
4;563
5;566
6;569
7;571
8;570
9;573
10;574
11;567
12;560
13;563
14;566
15;569
0;572
1;570
2;571
3;570
4;565
5;551
6;539
7;537
8;540
9;537
10;534
11;527
12;522
13;521
14;522
15;525
0;534
1;547
2;558
3;568
4;572
5;572
6;574
7;572
8;577
9;587
10;599
11;609
12;615
13;621
14;623
15;624
0;620
1;608
2;600
3;597
4;596
5;596
6;598
7;595
8;592
9;592
10;591
11;586
12;574
13;556
14;534
15;513
0;492
1;466
2;440
3;421
4;401
5;381
6;370
7;371
8;381
9;393
10;412
11;428
12;444
13;462
14;476
15;480
0;488
1;496
2;499
3;498
4;502
5;507
6;511
7;517
8;517
9;518
10;520
11;527
12;536
13;543
14;546
15;549
0;554
1;560
2;563
3;564
4;567
5;569
6;574
7;583
8;591
9;599
10;604
11;609
12;612
13;602
14;592
15;589
0;574
1;550
2;535
3;532
4;530
5;540
6;548
7;550
8;554
9;560
10;569
11;573
12;572
13;568
14;558
15;540
0;532
1;530
2;529
3;526
4;528
5;524
6;520
7;521
8;526
9;536
10;547
11;553
12;559
13;558
14;559
15;556
0;552
1;551
2;547
3;547
4;546
5;544
6;545
7;544
8;543
9;541
10;539
11;537
12;534
13;538
14;539
15;536
0;531
1;527
2;519
3;516
4;520
5;528
6;533
7;535
8;535
9;535
10;537
11;536
12;536
13;539
14;541
15;540
0;538
1;537
2;536
3;533
4;527
5;524
6;524
7;522
8;518
9;517
10;522
11;526
12;533
13;545
14;555
15;553
0;547
1;538
2;516
3;492
4;477
5;475
6;474
7;479
8;481
9;479
10;481
11;484
12;487
13;490
14;492
15;499
0;506
1;512
2;512
3;504
4;497
5;486
6;479
7;485
8;493
9;497
10;493
11;485
12;480
13;480
14;483
15;486
0;493
1;500
2;502
3;500
4;499
5;498
6;499
7;500
8;501
9;501
10;502
11;507
12;508
13;510
14;512
15;515
0;517
1;517
2;516
3;514
4;515
5;518
6;517
7;515
8;514
9;517
10;519
11;522
12;524
13;525
14;529
15;534
0;536
1;535
2;531
3;531
4;536
5;537
6;536
7;538
8;543
9;546
10;547
11;549
12;551
13;551
14;555
15;563
0;572
1;575
2;565
3;559
4;549
5;537
6;518
7;498
8;486
9;483
10;489
11;500
12;510
13;519
14;529
15;539
0;537
1;532
2;525
3;515
4;504
5;499
6;500
7;504
8;511
9;517
10;520
11;520
12;520
13;519
14;524
15;532
0;537
1;535
2;531
3;529
4;525
5;529
6;535
7;533
8;539
9;550
10;552
11;549
12;542
13;536
14;538
15;540
0;545
1;545
2;540
3;533
4;526
5;521
6;517
7;518
8;523
9;527
10;528
11;527
12;525
13;521
14;515
15;517
0;520
1;524
2;528
3;530
4;529
5;526
6;527
7;532
8;535
9;537
10;536
11;538
12;544
13;547
14;546
15;540
0;540
1;538
2;538
3;538
4;532
5;534
6;533
7;533
8;536
9;541
10;541
11;543
12;549
13;552
14;552
15;547
0;552
1;559
2;566
3;568
4;565
5;566
6;568
7;570
8;569
9;569
10;570
11;570
12;566
13;566
14;565
15;567
0;573
1;574
2;578
3;586
4;591
5;594
6;598
7;597
8;594
9;595
10;598
11;595
12;590
13;583
14;579
15;577
0;575
1;571
2;569
3;569
4;573
5;573
6;565
7;558
8;555
9;560
10;576
11;590
12;593
13;584
14;564
15;559
0;562
1;568
2;579
3;597
4;618
5;630
6;627
7;616
8;596
9;563
10;533
11;523
12;520
13;525
14;532
15;541
0;545
1;553
2;563
3;575
4;586
5;599
6;608
7;614
8;620
9;627
10;634
11;639
12;647
13;657
14;662
15;665
0;665
1;659
2;657
3;655
4;650
5;644
6;640
7;639
8;632
9;621
10;611
11;600
12;588
13;569
14;541
15;511
0;483
1;459
2;435
3;409
4;378
5;361
6;349
7;334
8;335
9;356
10;376
11;391
12;406
13;420
14;435
15;449
0;462
1;477
2;489
3;498
4;510
5;525
6;540
7;551
8;563
9;576
10;588
11;598
12;604
13;608
14;606
15;598
0;593
1;595
2;596
3;591
4;589
5;583
6;579
7;578
8;581
9;588
10;591
11;589
12;590
13;590
14;593
15;595
0;594
1;591
2;593
3;592
4;587
5;582
6;578
7;575
8;574
9;574
10;574
11;572
12;571
13;573
14;574
15;576
0;580
1;585
2;582
3;574
4;564
5;563
6;558
7;560
8;566
9;563
10;542
11;520
12;511
13;514
14;521
15;523
0;522
1;525
2;529
3;534
4;545
5;556
6;562
7;560
8;552
9;549
10;545
11;541
12;539
13;540
14;539
15;536
0;536
1;539
2;542
3;544
4;539
5;535
6;539
7;544
8;546
9;545
10;546
11;548
12;548
13;549
14;552
15;553
0;554
1;555
2;555
3;548
4;541
5;538
6;537
7;533
8;529
9;529
10;531
11;533
12;534
13;532
14;530
15;529
0;529
1;531
2;529
3;531
4;539
5;545
6;547
7;545
8;532
9;512
10;501
11;493
12;486
13;488
14;497
15;507
0;514
1;517
2;524
3;522
4;520
5;521
6;522
7;521
8;523
9;521
10;517
11;513
12;514
13;518
14;519
15;521
0;524
1;522
2;522
3;524
4;519
5;506
6;504
7;503
8;502
9;504
10;508
11;513
12;519
13;527
14;529
15;531
0;531
1;529
2;530
3;535
4;538
5;537
6;536
7;536
8;540
9;545
10;550
11;556
12;555
13;551
14;553
15;558
0;565
1;570
2;569
3;561
4;555
5;554
6;549
7;545
8;544
9;544
10;540
11;543
12;541
13;540
14;541
15;543
0;548
1;554
2;559
3;564
4;567
5;563
6;560
7;557
8;553
9;553
10;556
11;559
12;563
13;568
14;572
15;571
0;562
1;557
2;554
3;553
4;555
5;551
6;529
7;509
8;508
9;522
10;536
11;551
12;561
13;558
14;555
15;552
0;544
1;541
2;543
3;547
4;554
5;552
6;551
7;551
8;553
9;558
10;559
11;558
12;556
13;556
14;556
15;553
0;550
1;547
2;547
3;546
4;542
5;541
6;545
7;549
8;551
9;552
10;553
11;556
12;557
13;553
14;551
15;552
0;551
1;548
2;544
3;539
4;543
5;551
6;553
7;551
8;555
9;558
10;560
11;563
12;563
13;563
14;565
15;563
0;562
1;563
2;568
3;574
4;580
5;581
6;578
7;579
8;579
9;579
10;581
11;583
12;584
13;582
14;576
15;573
0;566
1;545
2;538
3;559
4;586
5;596
6;603
7;611
8;589
9;563
10;556
11;564
12;566
13;566
14;569
15;572
0;574
1;577
2;583
3;588
4;588
5;585
6;590
7;592
8;594
9;597
10;599
11;600
12;600
13;592
14;588
15;583
0;577
1;576
2;587
3;596
4;601
5;604
6;599
7;594
8;591
9;591
10;591
11;590
12;592
13;592
14;591
15;592
0;596
1;594
2;593
3;591
4;588
5;591
6;593
7;597
8;599
9;600
10;600
11;600
12;595
13;592
14;594
15;601
0;609
1;617
2;624
3;633
4;639
5;634
6;624
7;623
8;632
9;637
10;638
11;630
12;615
13;610
14;619
15;633
0;646
1;653
2;648
3;634
4;623
5;615
6;608
7;598
8;588
9;578
10;565
11;554
12;542
13;530
14;516
15;487
0;451
1;422
2;395
3;378
4;377
5;386
6;408
7;426
8;435
9;438
10;447
11;457
12;465
13;476
14;484
15;489
0;491
1;495
2;500
3;503
4;506
5;514
6;525
7;536
8;550
9;560
10;571
11;577
12;579
13;582
14;588
15;592
0;596
1;598
2;603
3;602
4;605
5;608
6;612
7;616
8;619
9;620
10;617
11;609
12;600
13;594
14;593
15;586
0;575
1;571
2;567
3;562
4;555
5;550
6;549
7;551
8;561
9;568
10;574
11;576
12;561
13;549
14;542
15;552
0;562
1;557
2;542
3;519
4;502
5;504
6;518
7;523
8;526
9;523
10;520
11;523
12;531
13;536
14;536
15;532
0;535
1;541
2;546
3;545
4;542
5;539
6;540
7;534
8;529
9;531
10;530
11;529
12;531
13;533
14;534
15;535
0;540
1;541
2;541
3;542
4;541
5;537
6;536
7;531
8;529
9;529
10;531
11;531
12;532
13;532
14;531
15;533
0;534
1;532
2;528
3;525
4;522
5;518
6;515
7;513
8;512
9;513
10;514
11;516
12;518
13;519
14;522
15;532
0;538
1;543
2;554
3;568
4;568
5;559
6;546
7;525
8;503
9;491
10;481
11;478
12;486
13;496
14;493
15;483
0;483
1;485
2;475
3;460
4;454
5;455
6;463
7;470
8;475
9;478
10;477
11;476
12;479
13;481
14;484
15;491
0;495
1;499
2;503
3;507
4;508
5;510
6;513
7;514
8;512
9;507
10;502
11;501
12;499
13;495
14;491
15;492
0;496
1;498
2;500
3;504
4;508
5;509
6;508
7;512
8;515
9;515
10;514
11;512
12;510
13;512
14;512
15;513
0;509
1;505
2;504
3;504
4;508
5;509
6;512
7;521
8;519
9;514
10;511
11;508
12;505
13;506
14;512
15;518
0;521
1;524
2;518
3;506
4;493
5;489
6;495
7;499
8;507
9;510
10;511
11;513
12;519
13;527
14;534
15;534
0;516
1;496
2;492
3;488
4;482
5;479
6;478
7;475
8;474
9;471
10;465
11;460
12;458
13;456
14;456
15;462
0;472
1;480
2;487
3;496
4;494
5;492
6;496
7;497
8;497
9;497
10;498
11;498
12;498
13;498
14;495
15;494
0;493
1;491
2;489
3;488
4;489
5;492
6;493
7;493
8;494
9;495
10;496
11;497
12;496
13;495
14;492
15;488
0;487
1;487
2;489
3;487
4;487
5;490
6;492
7;493
8;494
9;493
10;496
11;497
12;499
13;501
14;506
15;511
0;514
1;514
2;515
3;516
4;515
5;516
6;514
7;512
8;511
9;511
10;512
11;516
12;522
13;524
14;519
15;511
0;501
1;500
2;507
3;512
4;520
5;531
6;542
7;558
8;567
9;558
10;535
11;515
12;508
13;507
14;512
15;515
0;508
1;499
2;497
3;498
4;504
5;510
6;509
7;508
8;508
9;505
10;500
11;504
12;499
13;494
14;498
15;506
0;511
1;509
2;504
3;500
4;499
5;505
6;505
7;506
8;505
9;506
10;506
11;505
12;505
13;507
14;507
15;508
0;508
1;511
2;513
3;512
4;512
5;511
6;509
7;510
8;511
9;515
10;517
11;518
12;519
13;520
14;521
15;523
0;524
1;522
2;521
3;521
4;524
5;528
6;535
7;541
8;546
9;550
10;551
11;551
12;552
13;552
14;551
15;556
0;560
1;560
2;568
3;575
4;565
5;545
6;527
7;512
8;507
9;504
10;496
11;475
12;457
13;440
14;417
15;401
0;380
1;357
2;335
3;319
4;310
5;319
6;335
7;346
8;358
9;362
10;369
11;386
12;395
13;402
14;406
15;407
0;406
1;400
2;396
3;399
4;413
5;428
6;452
7;470
8;484
9;487
10;496
11;503
12;499
13;493
14;492
15;494
0;496
1;496
2;497
3;498
4;501
5;505
6;509
7;513
8;517
9;518
10;519
11;517
12;518
13;518
14;516
15;508
0;500
1;502
2;502
3;499
4;496
5;489
6;484
7;485
8;487
9;488
10;491
11;495
12;498
13;502
14;506
15;509
0;506
1;502
2;500
3;501
4;500
5;496
6;500
7;496
8;495
9;503
10;508
11;506
12;496
13;478
14;453
15;431
0;423
1;422
2;422
3;425
4;430
5;436
6;444
7;452
8;457
9;456
10;449
11;442
12;440
13;436
14;437
15;445
0;454
1;458
2;462
3;462
4;458
5;454
6;451
7;448
8;449
9;448
10;448
11;450
12;451
13;453
14;455
15;458
0;460
1;457
2;455
3;452
4;452
5;451
6;451
7;454
8;455
9;454
10;450
11;446
12;444
13;442
14;439
15;435
0;433
1;436
2;439
3;438
4;434
5;432
6;431
7;434
8;442
9;444
10;444
11;442
12;437
13;435
14;441
15;452
0;459
1;463
2;465
3;457
4;427
5;393
6;375
7;373
8;381
9;388
10;387
11;388
12;389
13;391
14;400
15;412
0;419
1;419
2;419
3;417
4;416
5;415
6;414
7;412
8;409
9;408
10;413
11;419
12;419
13;422
14;427
15;425
0;423
1;425
2;427
3;428
4;424
5;419
6;421
7;425
8;422
9;418
10;414
11;409
12;408
13;410
14;415
15;422
0;430
1;436
2;438
3;438
4;438
5;438
6;436
7;434
8;432
9;433
10;437
11;439
12;444
13;447
14;444
15;443
0;442
1;443
2;444
3;441
4;439
5;440
6;443
7;451
8;463
9;474
10;480
11;470
12;444
13;414
14;403
15;399
0;397
1;402
2;415
3;424
4;428
5;430
6;429
7;427
8;427
9;427
10;422
11;419
12;416
13;416
14;419
15;425
0;431
1;439
2;445
3;443
4;435
5;429
6;429
7;431
8;434
9;437
10;436
11;436
12;437
13;434
14;434
15;435
0;439
1;446
2;451
3;452
4;443
5;433
6;421
7;417
8;420
9;417
10;412
11;409
12;406
13;406
14;411
15;418
0;425
1;419
2;416
3;419
4;418
5;412
6;415
7;419
8;422
9;425
10;426
11;424
12;422
13;420
14;420
15;418
0;417
1;417
2;420
3;426
4;429
5;430
6;432
7;433
8;436
9;439
10;441
11;442
12;444
13;447
14;452
15;456
0;457
1;456
2;459
3;462
4;467
5;472
6;481
7;498
8;508
9;506
10;500
11;488
12;487
13;495
14;500
15;499
0;494
1;488
2;481
3;480
4;476
5;468
6;463
7;460
8;460
9;463
10;464
11;465
12;470
13;476
14;484
15;486
0;487
1;493
2;496
3;489
4;477
5;467
6;466
7;467
8;472
9;480
10;481
11;481
12;472
13;466
14;465
15;463
0;457
1;455
2;459
3;465
4;464
5;463
6;464
7;468
8;470
9;471
10;474
11;482
12;490
13;495
14;499
15;497
0;496
1;500
2;506
3;513
4;516
5;519
6;522
7;529
8;536
9;539
10;545
11;551
12;557
13;561
14;564
15;566
0;567
1;566
2;564
3;560
4;560
5;560
6;555
7;548
8;539
9;530
10;524
11;514
12;503
13;491
14;471
15;445
0;420
1;392
2;364
3;331
4;307
5;300
6;297
7;304
8;311
9;318
10;320
11;327
12;342
13;352
14;361
15;364
0;371
1;379
2;376
3;371
4;373
5;376
6;387
7;399
8;409
9;422
10;439
11;453
12;468
13;477
14;479
15;483
0;487
1;489
2;490
3;493
4;499
5;501
6;501
7;500
8;497
9;498
10;504
11;508
12;507
13;503
14;500
15;499
0;500
1;501
2;501
3;499
4;493
5;484
6;479
7;477
8;476
9;475
10;477
11;478
12;479
13;479
14;478
15;479
0;480
1;480
2;480
3;477
4;476
5;475
6;474
7;475
8;477
9;476
10;477
11;478
12;482
13;484
14;486
15;487
0;484
1;482
2;482
3;485
4;488
5;483
6;478
7;475
8;472
9;470
10;471
11;471
12;467
13;465
14;464
15;465
0;468
1;475
2;483
3;489
4;497
5;502
6;492
7;473
8;456
9;446
10;443
11;442
12;443
13;439
14;431
15;425
0;425
1;426
2;431
3;436
4;439
5;440
6;442
7;441
8;438
9;438
10;440
11;444
12;448
13;451
14;454
15;442
0;433
1;434
2;435
3;439
4;446
5;452
6;456
7;457
8;456
9;452
10;447
11;446
12;448
13;449
14;449
15;448
0;449
1;445
2;443
3;441
4;442
5;443
6;447
7;451
8;452
9;451
10;448
11;444
12;443
13;444
14;448
15;451
0;452
1;450
2;448
3;446
4;441
5;438
6;436
7;434
8;433
9;435
10;437
11;441
12;442
13;445
14;451
15;454
0;454
1;456
2;457
3;455
4;453
5;455
6;458
7;457
8;460
9;470
10;472
11;465
12;460
13;459
14;455
15;452
0;454
1;459
2;462
3;466
4;470
5;458
6;444
7;439
8;438
9;435
10;432
11;431
12;431
13;433
14;440
15;447
0;450
1;454
2;455
3;456
4;459
5;464
6;469
7;471
8;475
9;475
10;474
11;472
12;469
13;472
14;472
15;471
0;470
1;473
2;479
3;486
4;498
5;510
6;517
7;515
8;495
9;476
10;466
11;467
12;469
13;470
14;467
15;464
0;461
1;460
2;461
3;466
4;469
5;469
6;469
7;468
8;465
9;465
10;465
11;467
12;471
13;476
14;479
15;480
0;476
1;469
2;462
3;460
4;462
5;465
6;468
7;468
8;464
9;454
10;452
11;452
12;449
13;449
14;450
15;448
0;448
1;449
2;454
3;457
4;461
5;466
6;471
7;480
8;484
9;487
10;488
11;486
12;485
13;484
14;483
15;480
0;481
1;485
2;487
3;488
4;489
5;487
6;488
7;490
8;491
9;490
10;491
11;496
12;499
13;499
14;501
15;509
0;516
1;523
2;534
3;536
4;529
5;522
6;513
7;504
8;497
9;501
10;508
11;511
12;512
13;507
14;505
15;508
0;511
1;515
2;519
3;525
4;532
5;544
6;549
7;543
8;536
9;518
10;494
11;491
12;499
13;505
14;506
15;509
0;512
1;515
2;517
3;517
4;519
5;520
6;520
7;521
8;522
9;523
10;525
11;526
12;528
13;527
14;524
15;525
0;523
1;525
2;528
3;531
4;534
5;535
6;534
7;531
8;527
9;526
10;526
11;526
12;524
13;519
14;514
15;513
0;520
1;538
2;553
3;567
4;578
5;584
6;589
7;590
8;591
9;598
10;605
11;613
12;610
13;596
14;583
15;586
0;591
1;591
2;589
3;586
4;579
5;568
6;556
7;542
8;531
9;520
10;506
11;495
12;484
13;466
14;444
15;422
0;394
1;357
2;318
3;288
4;264
5;254
6;257
7;275
8;299
9;329
10;358
11;382
12;402
13;418
14;429
15;439
0;449
1;459
2;468
3;478
4;487
5;496
6;504
7;511
8;515
9;517
10;520
11;524
12;535
13;545
14;554
15;565
0;568
1;568
2;562
3;559
4;558
5;556
6;554
7;554
8;554
9;556
10;554
11;553
12;551
13;544
14;537
15;534
0;528
1;523
2;518
3;516
4;514
5;511
6;511
7;514
8;517
9;518
10;518
11;517
12;515
13;517
14;519
15;518
0;517
1;518
2;516
3;515
4;512
5;507
6;500
7;494
8;489
9;488
10;489
11;488
12;492
13;495
14;498
15;502
0;508
1;512
2;518
3;526
4;528
5;524
6;512
7;493
8;486
9;487
10;492
11;497
12;497
13;496
14;492
15;486
0;474
1;470
2;467
3;462
4;454
5;452
6;457
7;463
8;464
9;462
10;462
11;463
12;466
13;470
14;475
15;480
0;480
1;481
2;484
3;487
4;489
5;488
6;486
7;485
8;483
9;483
10;483
11;485
12;481
13;474
14;470
15;473
0;476
1;473
2;472
3;472
4;473
5;474
6;474
7;470
8;463
9;459
10;459
11;457
12;452
13;447
14;446
15;450
0;454
1;459
2;466
3;469
4;471
5;475
6;476
7;472
8;466
9;464
10;465
11;466
12;469
13;469
14;474
15;477
0;477
1;480
2;480
3;480
4;486
5;491
6;489
7;489
8;487
9;486
10;480
11;474
12;477
13;481
14;484
15;484
0;478
1;465
2;458
3;459
4;462
5;465
6;471
7;477
8;479
9;480
10;483
11;487
12;493
13;501
14;504
15;506
0;508
1;509
2;509
3;509
4;511
5;510
6;512
7;515
8;514
9;511
10;513
11;513
12;512
13;510
14;512
15;513
0;519
1;519
2;518
3;521
4;521
5;519
6;518
7;519
8;523
9;527
10;525
11;520
12;518
13;517
14;515
15;509
0;506
1;505
2;506
3;505
4;508
5;513
6;514
7;513
8;513
9;511
10;504
11;497
12;493
13;494
14;497
15;500
0;504
1;515
2;523
3;530
4;539
5;540
6;529
7;511
8;500
9;499
10;499
11;489
12;485
13;484
14;486
15;488
0;488
1;484
2;479
3;477
4;473
5;467
6;464
7;460
8;460
9;461
10;466
11;473
12;481
13;486
14;492
15;496
0;501
1;507
2;517
3;521
4;518
5;518
6;525
7;533
8;540
9;547
10;547
11;546
12;543
13;533
14;524
15;517
0;512
1;513
2;515
3;518
4;521
5;524
6;527
7;530
8;534
9;540
10;541
11;537
12;533
13;533
14;538
15;542
0;543
1;547
2;552
3;557
4;560
5;560
6;553
7;547
8;544
9;539
10;532
11;533
12;536
13;535
14;531
15;531
0;531
1;536
2;541
3;548
4;559
5;568
6;575
7;580
8;579
9;567
10;547
11;536
12;520
13;508
14;511
15;517
0;526
1;531
2;537
3;542
4;534
5;529
6;531
7;538
8;552
9;563
10;560
11;550
12;551
13;557
14;559
15;554
0;541
1;531
2;533
3;537
4;538
5;536
6;537
7;539
8;543
9;547
10;546
11;551
12;557
13;563
14;568
15;568
0;571
1;577
2;584
3;593
4;600
5;605
6;608
7;615
8;619
9;620
10;615
11;609
12;606
13;607
14;608
15;609
0;612
1;615
2;618
3;614
4;606
5;595
6;581
7;570
8;558
9;546
10;531
11;514
12;497
13;474
14;448
15;427
0;407
1;384
2;369
3;360
4;345
5;333
6;337
7;352
8;371
9;391
10;417
11;439
12;454
13;465
14;473
15;483
0;489
1;490
2;494
3;492
4;488
5;493
6;496
7;498
8;505
9;512
10;519
11;523
12;531
13;539
14;546
15;551
0;556
1;560
2;562
3;568
4;574
5;574
6;572
7;569
8;563
9;562
10;560
11;558
12;555
13;553
14;550
15;545
0;537
1;529
2;523
3;520
4;518
5;517
6;520
7;524
8;526
9;527
10;527
11;529
12;530
13;536
14;543
15;551
0;556
1;554
2;552
3;536
4;504
5;491
6;496
7;498
8;495
9;489
10;489
11;494
12;501
13;504
14;500
15;499
0;499
1;502
2;504
3;506
4;504
5;496
6;496
7;498
8;500
9;505
10;504
11;498
12;494
13;495
14;499
15;504
0;506
1;501
2;495
3;493
4;493
5;494
6;493
7;493
8;491
9;491
10;492
11;492
12;494
13;495
14;498
15;499
0;500
1;503
2;500
3;500
4;504
5;505
6;506
7;503
8;502
9;505
10;509
11;505
12;498
13;489
14;487
15;491
0;497
1;498
2;496
3;494
4;491
5;486
6;481
7;478
8;477
9;473
10;470
11;469
12;467
13;467
14;467
15;469
0;470
1;471
2;474
3;475
4;477
5;478
6;479
7;483
8;490
9;500
10;508
11;508
12;503
13;487
14;466
15;451
0;445
1;443
2;440
3;442
4;445
5;448
6;451
7;450
8;451
9;459
10;464
11;460
12;460
13;463
14;467
15;465
0;461
1;456
2;455
3;459
4;464
5;465
6;466
7;462
8;461
9;463
10;467
11;469
12;473
13;478
14;483
15;491
0;497
1;500
2;502
3;503
4;505
5;506
6;506
7;503
8;502
9;502
10;500
11;499
12;500
13;500
14;500
15;498
0;495
1;494
2;493
3;496
4;497
5;497
6;495
7;493
8;492
9;493
10;496
11;497
12;497
13;496
14;495
15;492
0;488
1;483
2;479
3;473
4;470
5;469
6;467
7;471
8;475
9;482
10;491
11;496
12;497
13;492
14;487
15;487
0;492
1;495
2;499
3;504
4;505
5;507
6;503
7;491
8;480
9;476
10;476
11;476
12;475
13;476
14;476
15;476
0;477
1;476
2;476
3;479
4;483
5;483
6;482
7;485
8;484
9;481
10;480
11;481
12;481
13;481
14;478
15;480
0;483
1;486
2;490
3;492
4;491
5;492
6;494
7;493
8;492
9;492
10;490
11;489
12;489
13;491
14;493
15;494
0;497
1;500
2;503
3;505
4;507
5;509
6;512
7;515
8;521
9;527
10;532
11;537
12;533
13;525
14;517
15;511
0;512
1;519
2;527
3;532
4;529
5;525
6;525
7;525
8;527
9;532
10;535
11;542
12;539
13;528
14;520
15;524
0;533
1;542
2;543
3;542
4;537
5;528
6;516
7;512
8;518
9;523
10;528
11;532
12;536
13;537
14;534
15;534
0;537
1;543
2;545
3;544
4;541
5;536
6;529
7;514
8;507
9;510
10;514
11;517
12;520
13;525
14;527
15;533
0;538
1;538
2;537
3;540
4;546
5;545
6;543
7;545
8;541
9;536
10;538
11;543
12;545
13;547
14;552
15;560
0;563
1;566
2;569
3;575
4;580
5;585
6;591
7;598
8;605
9;612
10;615
11;617
12;613
13;609
14;609
15;608
0;611
1;613
2;619
3;622
4;620
5;610
6;595
7;585
8;572
9;555
10;536
11;523
12;496
13;457
14;415
15;380
0;349
1;330
2;326
3;334
4;344
5;357
6;374
7;391
8;407
9;420
10;424
11;429
12;430
13;431
14;435
15;436
0;436
1;446
2;463
3;476
4;485
5;493
6;504
7;508
8;510
9;515
10;525
11;535
12;543
13;547
14;550
15;557
0;565
1;573
2;580
3;584
4;583
5;572
6;565
7;566
8;571
9;566
10;556
11;552
12;548
13;544
14;543
15;544
0;549
1;549
2;542
3;537
4;531
5;525
6;524
7;523
8;520
9;518
10;516
11;516
12;516
13;516
14;514
15;508
0;507
1;506
2;505
3;504
4;503
5;503
6;500
7;502
8;500
9;496
10;495
11;496
12;498
13;498
14;498
15;493
0;494
1;501
2;511
3;518
4;522
5;521
6;520
7;525
8;530
9;524
10;511
11;496
12;494
13;495
14;495
15;496
0;499
1;495
2;486
3;482
4;483
5;486
6;489
7;492
8;492
9;493
10;497
11;500
12;501
13;503
14;507
15;512
0;513
1;512
2;509
3;503
4;502
5;504
6;504
7;505
8;503
9;503
10;505
11;505
12;506
13;507
14;508
15;509
0;508
1;508
2;504
3;502
4;502
5;503
6;497
7;491
8;489
9;487
10;486
11;488
12;493
13;503
14;505
15;496
0;484
1;470
2;455
3;442
4;440
5;442
6;446
7;449
8;453
9;461
10;472
11;479
12;483
13;483
14;484
15;487
0;489
1;496
2;500
3;500
4;497
5;495
6;484
7;472
8;456
9;457
10;466
11;475
12;478
13;477
14;472
15;473
0;481
1;486
2;489
3;493
4;496
5;500
6;502
7;504
8;508
9;513
10;519
11;519
12;516
13;516
14;517
15;521
0;526
1;527
2;527
3;524
4;523
5;520
6;520
7;523
8;523
9;523
10;523
11;516
12;513
13;517
14;523
15;525
0;525
1;525
2;526
3;525
4;522
5;516
6;511
7;506
8;504
9;502
10;507
11;511
12;510
13;507
14;507
15;511
0;512
1;512
2;508
3;500
4;498
5;500
6;503
7;506
8;509
9;511
10;515
11;521
12;527
13;532
14;539
15;545
0;549
1;539
2;531
3;524
4;513
5;503
6;493
7;486
8;484
9;487
10;491
11;495
12;497
13;496
14;493
15;489
0;489
1;487
2;482
3;480
4;480
5;482
6;484
7;485
8;486
9;487
10;488
11;487
12;490
13;496
14;500
15;505
0;510
1;517
2;520
3;519
4;519
5;521
6;523
7;520
8;517
9;515
10;512
11;513
12;515
13;517
14;521
15;521
0;521
1;519
2;522
3;524
4;524
5;526
6;527
7;527
8;528
9;531
10;534
11;544
12;560
13;575
14;583
15;584
0;572
1;537
2;501
3;482
4;476
5;476
6;481
7;493
8;508
9;518
10;528
11;544
12;555
13;557
14;557
15;556
0;551
1;543
2;539
3;540
4;543
5;549
6;557
7;563
8;564
9;562
10;558
11;553
12;551
13;548
14;552
15;554
0;552
1;553
2;557
3;560
4;560
5;557
6;557
7;559
8;560
9;561
10;565
11;566
12;563
13;562
14;560
15;562
0;563
1;561
2;561
3;566
4;568
5;573
6;578
7;580
8;575
9;561
10;551
11;543
12;532
13;527
14;531
15;536
0;547
1;567
2;587
3;606
4;616
5;623
6;634
7;641
8;643
9;646
10;646
11;637
12;624
13;612
14;609
15;605
0;599
1;594
2;598
3;594
4;590
5;583
6;573
7;559
8;542
9;529
10;519
11;496
12;466
13;434
14;400
15;366
0;339
1;322
2;316
3;314
4;317
5;323
6;333
7;345
8;363
9;384
10;404
11;424
12;446
13;464
14;476
15;488
0;501
1;508
2;511
3;515
4;524
5;539
6;551
7;552
8;552
9;556
10;552
11;550
12;551
13;542
14;529
15;529
0;537
1;548
2;558
3;567
4;563
5;554
6;555
7;567
8;577
9;585
10;584
11;585
12;585
13;583
14;581
15;579
0;577
1;574
2;570
3;570
4;569
5;565
6;560
7;555
8;553
9;548
10;542
11;538
12;534
13;532
14;534
15;536
0;539
1;542
2;543
3;543
4;541
5;541
6;546
7;550
8;553
9;553
10;550
11;543
12;529
13;517
14;506
15;494
0;479
1;476
2;481
3;487
4;497
5;503
6;509
7;516
8;519
9;518
10;516
11;509
12;505
13;504
14;502
15;504
0;508
1;510
2;513
3;517
4;520
5;517
6;506
7;501
8;497
9;500
10;499
11;498
12;503
13;508
14;517
15;523
0;520
1;517
2;517
3;516
4;516
5;515
6;515
7;515
8;510
9;505
10;505
11;507
12;507
13;505
14;506
15;507
0;510
1;512
2;513
3;511
4;510
5;509
6;506
7;501
8;496
9;493
10;491
11;488
12;486
13;486
14;486
15;488
0;488
1;486
2;486
3;486
4;487
5;492
6;497
7;507
8;519
9;532
10;530
11;514
12;498
13;475
14;448
15;437
0;438
1;439
2;441
3;446
4;450
5;455
6;459
7;465
8;468
9;468
10;472
11;478
12;484
13;483
14;479
15;479
0;482
1;488
2;497
3;502
4;504
5;504
6;501
7;500
8;501
9;505
10;516
11;519
12;516
13;514
14;516
15;517
0;518
1;522
2;524
3;520
4;513
5;513
6;518
7;522
8;525
9;528
10;528
11;527
12;528
13;528
14;528
15;527
0;527
1;529
2;530
3;531
4;533
5;534
6;528
7;515
8;505
9;495
10;486
11;492
12;501
13;507
14;510
15;514
0;516
1;516
2;517
3;518
4;520
5;524
6;530
7;536
8;543
9;554
10;560
11;558
12;549
13;533
14;511
15;487
0;478
1;479
2;488
3;499
4;505
5;505
6;501
7;500
8;500
9;500
10;500
11;502
12;506
13;511
14;513
15;514
0;511
1;503
2;489
3;475
4;471
5;477
6;483
7;488
8;497
9;504
10;507
11;508
12;510
13;512
14;511
15;514
0;515
1;518
2;518
3;520
4;521
5;521
6;523
7;528
8;531
9;532
10;535
11;541
12;541
13;540
14;536
15;536
0;542
1;545
2;546
3;543
4;542
5;545
6;554
7;559
8;560
9;561
10;563
11;565
12;568
13;572
14;576
15;583
0;588
1;591
2;594
3;590
4;583
5;572
6;569
7;568
8;562
9;551
10;535
11;521
12;514
13;513
14;522
15;527
0;530
1;541
2;551
3;558
4;562
5;565
6;564
7;562
8;563
9;566
10;566
11;568
12;573
13;574
14;575
15;574
0;573
1;570
2;569
3;574
4;577
5;584
6;592
7;598
8;600
9;601
10;599
11;594
12;591
13;589
14;589
15;589
0;587
1;583
2;580
3;582
4;587
5;588
6;589
7;591
8;592
9;591
10;589
11;588
12;587
13;588
14;592
15;595
0;599
1;606
2;613
3;622
4;629
5;637
6;643
7;651
8;660
9;665
10;666
11;665
12;662
13;659
14;656
15;656
0;653
1;648
2;640
3;621
4;604
5;587
6;572
7;559
8;546
9;535
10;525
11;494
12;451
13;381
14;323
15;295
0;286
1;284
2;288
3;300
4;318
5;337
6;358
7;381
8;406
9;434
10;462
11;487
12;504
13;519
14;529
15;536
0;543
1;550
2;558
3;567
4;573
5;579
6;586
7;593
8;596
9;597
10;600
11;603
12;604
13;605
14;607
15;610
0;613
1;614
2;613
3;609
4;604
5;600
6;600
7;599
8;597
9;600
10;597
11;580
12;570
13;571
14;568
15;560
0;555
1;552
2;546
3;545
4;552
5;559
6;562
7;560
8;558
9;555
10;553
11;554
12;555
13;556
14;552
15;548
0;546
1;545
2;543
3;540
4;542
5;542
6;539
7;535
8;530
9;528
10;529
11;533
12;536
13;534
14;534
15;533
0;531
1;532
2;532
3;528
4;524
5;524
6;523
7;521
8;518
9;516
10;515
11;515
12;515
13;518
14;519
15;518
0;515
1;514
2;519
3;525
4;530
5;532
6;535
7;535
8;537
9;538
10;540
11;540
12;540
13;543
14;545
15;551
0;558
1;561
2;564
3;564
4;546
5;524
6;514
7;506
8;492
9;481
10;477
11;479
12;479
13;478
14;481
15;487
0;491
1;487
2;483
3;480
4;473
5;472
6;475
7;481
8;486
9;492
10;494
11;493
12;486
13;484
14;485
15;482
0;481
1;480
2;480
3;481
4;483
5;485
6;485
7;482
8;479
9;479
10;481
11;485
12;486
13;482
14;481
15;487
0;491
1;492
2;495
3;496
4;502
5;504
6;504
7;502
8;501
9;501
10;500
11;496
12;494
13;498
14;503
15;505
0;507
1;506
2;506
3;507
4;509
5;511
6;510
7;509
8;507
9;506
10;508
11;510
12;511
13;513
14;515
15;519
0;519
1;518
2;516
3;515
4;516
5;516
6;514
7;513
8;515
9;515
10;515
11;517
12;518
13;518
14;519
15;516
0;508
1;506
2;509
3;508
4;510
5;511
6;512
7;511
8;511
9;507
10;511
11;514
12;509
13;494
14;486
15;478
0;472
1;475
2;478
3;478
4;482
5;492
6;501
7;507
8;512
9;517
10;518
11;513
12;505
13;501
14;508
15;519
0;519
1;511
2;500
3;484
4;482
5;485
6;489
7;490
8;492
9;491
10;491
11;491
12;489
13;489
14;488
15;489
0;490
1;490
2;490
3;490
4;494
5;495
6;493
7;492
8;493
9;494
10;496
11;497
12;503
13;512
14;515
15;514
0;513
1;510
2;509
3;506
4;508
5;510
6;513
7;515
8;518
9;522
10;528
11;533
12;539
13;545
14;549
15;548
0;540
1;528
2;516
3;508
4;511
5;516
6;514
7;514
8;513
9;510
10;514
11;529
12;541
13;551
14;558
15;576
0;587
1;585
2;571
3;551
4;545
5;544
6;545
7;543
8;537
9;538
10;545
11;545
12;544
13;543
14;542
15;540
0;543
1;545
2;544
3;544
4;545
5;548
6;551
7;552
8;553
9;553
10;553
11;552
12;549
13;543
14;538
15;536
0;537
1;536
2;537
3;539
4;542
5;547
6;549
7;551
8;552
9;549
10;545
11;545
12;546
13;547
14;549
15;552
0;554
1;550
2;547
3;543
4;547
5;560
6;569
7;567
8;565
9;563
10;567
11;570
12;573
13;579
14;583
15;586
0;595
1;605
2;610
3;613
4;609
5;609
6;616
7;622
8;623
9;623
10;627
11;629
12;628
13;622
14;620
15;611
0;595
1;575
2;553
3;542
4;540
5;537
6;532
7;520
8;496
9;466
10;429
11;391
12;355
13;336
14;328
15;327
0;331
1;334
2;338
3;346
4;363
5;383
6;405
7;422
8;435
9;448
10;461
11;475
12;482
13;487
14;493
15;497
0;505
1;515
2;526
3;532
4;536
5;541
6;547
7;556
8;568
9;572
10;562
11;543
12;536
13;547
14;553
15;551
0;548
1;546
2;544
3;552
4;562
5;568
6;579
7;589
8;594
9;588
10;562
11;549
12;544
13;533
14;529
15;530
0;525
1;520
2;520
3;524
4;528
5;527
6;525
7;525
8;526
9;525
10;527
11;531
12;532
13;532
14;528
15;526
0;525
1;524
2;525
3;526
4;524
5;521
6;518
7;514
8;515
9;517
10;516
11;512
12;515
13;517
14;515
15;513
0;511
1;510
2;508
3;508
4;511
5;510
6;508
7;507
8;504
9;505
10;508
11;506
12;506
13;502
14;502
15;503
0;499
1;491
2;484
3;483
4;491
5;499
6;505
7;505
8;503
9;491
10;482
11;485
12;494
13;492
14;482
15;464
0;446
1;449
2;462
3;469
4;475
5;479
6;483
7;487
8;489
9;490
10;492
11;494
12;494
13;493
14;494
15;492
0;489
1;488
2;487
3;484
4;481
5;477
6;476
7;476
8;477
9;477
10;475
11;475
12;475
13;474
14;474
15;476
0;476
1;479
2;479
3;481
4;481
5;486
6;492
7;492
8;491
9;487
10;481
11;480
12;480
13;480
14;484
15;489
0;491
1;489
2;483
3;481
4;478
5;476
6;480
7;480
8;478
9;475
10;470
11;466
12;468
13;470
14;470
15;472
0;472
1;469
2;467
3;471
4;481
5;490
6;495
7;496
8;487
9;477
10;473
11;472
12;475
13;479
14;482
15;483
0;487
1;491
2;498
3;511
4;525
5;531
6;531
7;519
8;505
9;497
10;488
11;489
12;493
13;490
14;487
15;487
0;487
1;484
2;481
3;477
4;479
5;481
6;484
7;487
8;492
9;494
10;494
11;494
12;493
13;491
14;491
15;494
0;499
1;503
2;508
3;508
4;506
5;507
6;510
7;512
8;509
9;507
10;510
11;510
12;508
13;504
14;501
15;496
0;490
1;486
2;484
3;487
4;491
5;492
6;491
7;492
8;492
9;495
10;494
11;490
12;486
13;481
14;481
15;479
0;480
1;485
2;489
3;496
4;504
5;505
6;502
7;499
8;486
9;484
10;491
11;494
12;493
13;486
14;473
15;467
0;470
1;479
2;487
3;486
4;485
5;491
6;492
7;495
8;497
9;496
10;494
11;492
12;494
13;498
14;504
15;507
0;514
1;519
2;518
3;514
4;512
5;516
6;520
7;524
8;527
9;528
10;531
11;532
12;532
13;532
14;532
15;534
0;535
1;538
2;541
3;542
4;544
5;544
6;543
7;545
8;547
9;546
10;546
11;546
12;547
13;549
14;551
15;551
0;548
1;544
2;542
3;539
4;537
5;538
6;541
7;540
8;541
9;543
10;543
11;543
12;540
13;537
14;534
15;535
0;540
1;542
2;542
3;547
4;554
5;555
6;548
7;539
8;526
9;520
10;528
11;532
12;536
13;544
14;536
15;518
0;505
1;501
2;502
3;504
4;512
5;519
6;528
7;538
8;548
9;554
10;563
11;575
12;584
13;588
14;591
15;592
0;582
1;568
2;564
3;569
4;576
5;578
6;577
7;583
8;591
9;594
10;598
11;596
12;593
13;589
14;582
15;572
0;561
1;548
2;536
3;518
4;496
5;470
6;439
7;407
8;380
9;359
10;349
11;347
12;352
13;363
14;378
15;394
0;409
1;422
2;432
3;439
4;443
5;443
6;443
7;447
8;450
9;455
10;463
11;471
12;480
13;491
14;503
15;515
0;520
1;522
2;525
3;531
4;536
5;542
6;547
7;551
8;550
9;547
10;543
11;540
12;541
13;548
14;556
15;561
0;565
1;558
2;548
3;540
4;541
5;530
6;515
7;511
8;510
9;504
10;501
11;496
12;487
13;489
14;500
15;508
0;511
1;509
2;507
3;507
4;509
5;508
6;507
7;508
8;509
9;509
10;514
11;517
12;518
13;516
14;512
15;510
0;512
1;514
2;515
3;515
4;516
5;518
6;516
7;514
8;512
9;511
10;509
11;508
12;508
13;508
14;504
15;500
0;499
1;497
2;498
3;500
4;500
5;495
6;492
7;490
8;490
9;491
10;492
11;493
12;492
13;491
14;495
15;499
0;501
1;496
2;487
3;477
4;473
5;475
6;481
7;483
8;483
9;485
10;490
11;491
12;493
13;499
14;507
15;513
0;514
1;512
2;504
3;492
4;476
5;459
6;452
7;447
8;438
9;428
10;427
11;431
12;437
13;441
14;445
15;451
0;457
1;465
2;473
3;478
4;482
5;482
6;478
7;475
8;472
9;470
10;465
11;461
12;462
13;463
14;464
15;465
0;465
1;465
2;468
3;469
4;470
5;472
6;473
7;472
8;472
9;475
10;478
11;482
12;484
13;486
14;489
15;492
0;492
1;490
2;489
3;488
4;488
5;487
6;482
7;478
8;476
9;475
10;476
11;479
12;481
13;483
14;489
15;493
0;500
1;508
2;511
3;511
4;507
5;496
6;487
7;485
8;490
9;495
10;494
11;487
12;483
13;480
14;478
15;479
0;483
1;488
2;488
3;487
4;488
5;490
6;492
7;494
8;495
9;495
10;492
11;492
12;493
13;493
14;493
15;491
0;488
1;488
2;489
3;491
4;492
5;495
6;495
7;492
8;488
9;483
10;484
11;488
12;493
13;497
14;500
15;503
0;504
1;501
2;505
3;509
4;514
5;516
6;506
7;492
8;486
9;490
10;493
11;495
12;496
13;496
14;494
15;489
0;486
1;483
2;473
3;464
4;462
5;466
6;472
7;471
8;468
9;470
10;471
11;471
12;473
13;478
14;484
15;488
0;490
1;491
2;494
3;498
4;502
5;504
6;507
7;512
8;517
9;516
10;515
11;518
12;520
13;520
14;519
15;517
0;513
1;512
2;512
3;512
4;513
5;515
6;518
7;522
8;523
9;521
10;520
11;519
12;519
13;519
14;531
15;543
0;550
1;549
2;535
3;528
4;529
5;532
6;537
7;538
8;536
9;536
10;536
11;537
12;539
13;540
14;542
15;543
0;544
1;547
2;547
3;543
4;540
5;542
6;545
7;549
8;555
9;561
10;566
11;570
12;571
13;570
14;560
15;541
0;526
1;519
2;516
3;517
4;523
5;533
6;539
7;537
8;541
9;543
10;539
11;535
12;528
13;524
14;532
15;545
0;550
1;552
2;550
3;539
4;525
5;517
6;516
7;518
8;520
9;523
10;527
11;531
12;535
13;536
14;538
15;539
0;538
1;542
2;546
3;551
4;557
5;564
6;573
7;582
8;589
9;595
10;600
11;602
12;605
13;608
14;612
15;609
0;608
1;609
2;607
3;604
4;600
5;599
6;600
7;601
8;600
9;592
10;581
11;570
12;557
13;542
14;527
15;510
0;491
1;467
2;437
3;402
4;370
5;345
6;333
7;335
8;344
9;359
10;382
11;403
12;414
13;429
14;439
15;443
0;441
1;431
2;425
3;411
4;404
5;413
6;430
7;437
8;444
9;459
10;478
11;493
12;502
13;507
14;508
15;511
0;517
1;524
2;525
3;532
4;545
5;550
6;551
7;558
8;564
9;568
10;569
11;568
12;565
13;564
14;563
15;561
0;560
1;558
2;558
3;556
4;551
5;548
6;547
7;546
8;544
9;542
10;541
11;541
12;535
13;531
14;533
15;535
0;540
1;540
2;539
3;536
4;533
5;531
6;529
7;527
8;526
9;521
10;517
11;515
12;518
13;521
14;525
15;527
0;528
1;531
2;536
3;542
4;542
5;535
6;519
7;493
8;479
9;486
10;495
11;498
12;505
13;512
14;513
15;515
0;517
1;514
2;512
3;512
4;510
5;504
6;495
7;485
8;484
9;489
10;492
11;494
12;494
13;497
14;503
15;509
0;513
1;507
2;497
3;492
4;489
5;483
6;479
7;483
8;487
9;490
10;492
11;493
12;498
13;502
14;502
15;499
0;494
1;492
2;492
3;491
4;488
5;488
6;488
7;486
8;483
9;482
10;485
11;487
12;489
13;491
14;493
15;492
0;490
1;489
2;485
3;480
4;476
5;471
6;466
7;468
8;470
9;472
10;475
11;480
12;486
13;489
14;487
15;490
0;498
1;502
2;507
3;503
4;483
5;459
6;436
7;424
8;423
9;428
10;435
11;440
12;446
13;451
14;460
15;464
0;465
1;467
2;469
3;473
4;478
5;481
6;485
7;486
8;483
9;474
10;468
11;467
12;473
13;482
14;488
15;493
0;496
1;499
2;500
3;505
4;510
5;515
6;518
7;522
8;522
9;520
10;521
11;519
12;516
13;511
14;509
15;509
0;508
1;509
2;510
3;512
4;513
5;511
6;508
7;506
8;506
9;506
10;507
11;507
12;507
13;507
14;504
15;498
0;495
1;499
2;506
3;509
4;508
5;505
6;506
7;508
8;510
9;517
10;511
11;489
12;474
13;476
14;484
15;488
0;488
1;490
2;497
3;502
4;504
5;501
6;497
7;495
8;495
9;502
10;508
11;507
12;495
13;478
14;473
15;472
0;476
1;481
2;482
3;484
4;487
5;494
6;500
7;497
8;490
9;487
10;489
11;487
12;481
13;477
14;476
15;477
0;478
1;483
2;488
3;490
4;491
5;492
6;495
7;499
8;504
9;510
10;516
11;519
12;519
13;519
14;519
15;520
0;519
1;520
2;523
3;527
4;533
5;539
6;540
7;537
8;531
9;524
10;520
11;520
12;523
13;524
14;530
15;535
0;540
1;542
2;543
3;543
4;539
5;537
6;542
7;547
8;548
9;543
10;539
11;537
12;539
13;536
14;534
15;530
0;531
1;534
2;534
3;531
4;528
5;525
6;526
7;537
8;546
9;547
10;546
11;543
12;541
13;537
14;530
15;530
0;531
1;531
2;533
3;540
4;546
5;550
6;557
7;566
8;569
9;556
10;541
11;534
12;533
13;539
14;542
15;541
0;540
1;534
2;533
3;539
4;542
5;539
6;537
7;535
8;534
9;538
10;540
11;540
12;541
13;542
14;544
15;547
0;549
1;554
2;560
3;566
4;574
5;582
6;591
7;597
8;601
9;608
10;611
11;616
12;617
13;615
14;618
15;619
0;617
1;613
2;614
3;615
4;619
5;624
6;624
7;620
8;607
9;592
10;575
11;561
12;544
13;529
14;520
15;506
0;486
1;455
2;414
3;373
4;347
5;332
6;327
7;324
8;326
9;335
10;349
11;361
12;375
13;388
14;390
15;389
0;399
1;423
2;448
3;461
4;465
5;467
6;466
7;461
8;462
9;468
10;481
11;501
12;519
13;532
14;543
15;553
0;556
1;555
2;555
3;551
4;551
5;554
6;556
7;558
8;557
9;557
10;559
11;560
12;563
13;567
14;566
15;562
0;562
1;566
2;568
3;568
4;567
5;564
6;559
7;548
8;545
9;544
10;542
11;541
12;540
13;541
14;541
15;537
0;534
1;532
2;530
3;528
4;528
5;530
6;531
7;530
8;528
9;528
10;528
11;523
12;520
13;519
14;517
15;516
0;513
1;512
2;512
3;510
4;511
5;512
6;521
7;529
8;534
9;530
10;523
11;505
12;483
13;468
14;470
15;482
0;495
1;501
2;507
3;506
4;504
5;510
6;514
7;510
8;509
9;514
10;514
11;511
12;513
13;512
14;504
15;501
0;504
1;508
2;510
3;508
4;506
5;503
6;502
7;501
8;496
9;494
10;492
11;484
12;481
13;482
14;484
15;486
0;488
1;488
2;487
3;490
4;491
5;491
6;491
7;491
8;493
9;496
10;497
11;498
12;497
13;495
14;492
15;487
0;482
1;479
2;474
3;471
4;472
5;475
6;473
7;476
8;477
9;473
10;471
11;470
12;471
13;473
14;477
15;481
0;481
1;484
2;487
3;489
4;487
5;483
6;479
7;476
8;471
9;469
10;468
11;470
12;471
13;471
14;470
15;469
0;469
1;473
2;479
3;481
4;482
5;481
6;481
7;481
8;483
9;485
10;489
11;495
12;499
13;504
14;508
15;505
0;491
1;481
2;482
3;490
4;495
5;489
6;478
7;471
8;467
9;468
10;473
11;477
12;480
13;486
14;490
15;496
0;503
1;510
2;512
3;510
4;506
5;504
6;499
7;493
8;489
9;483
10;481
11;483
12;483
13;485
14;489
15;492
0;494
1;495
2;494
3;496
4;501
5;505
6;509
7;511
8;513
9;511
10;510
11;512
12;509
13;504
14;493
15;486
0;491
1;495
2;492
3;493
4;496
5;499
6;502
7;498
8;495
9;499
10;502
11;503
12;506
13;510
14;519
15;527
0;528
1;521
2;498
3;473
4;459
5;460
6;463
7;466
8;468
9;474
10;478
11;484
12;489
13;491
14;495
15;495
0;498
1;502
2;503
3;504
4;505
5;505
6;504
7;504
8;501
9;500
10;510
11;511
12;512
13;516
14;520
15;523
0;517
1;508
2;508
3;511
4;513
5;518
6;525
7;533
8;541
9;539
10;527
11;525
12;526
13;525
14;525
15;525
0;523
1;523
2;524
3;527
4;525
5;525
6;528
7;523
8;524
9;534
10;538
11;542
12;541
13;539
14;542
15;548
0;552
1;555
2;559
3;561
4;557
5;558
6;561
7;565
8;568
9;570
10;571
11;572
12;575
13;574
14;571
15;568
0;565
1;565
2;565
3;565
4;564
5;561
6;562
7;559
8;555
9;552
10;553
11;554
12;557
13;555
14;552
15;551
0;548
1;549
2;549
3;556
4;562
5;559
6;551
7;540
8;533
9;530
10;531
11;541
12;553
13;563
14;565
15;563
0;566
1;572
2;582
3;588
4;584
5;581
6;586
7;599
8;614
9;626
10;636
11;640
12;644
13;641
14;640
15;638
0;636
1;633
2;622
3;613
4;605
5;590
6;573
7;554
8;540
9;528
10;518
11;510
12;492
13;458
14;422
15;386
0;351
1;320
2;306
3;299
4;297
5;301
6;311
7;326
8;342
9;363
10;383
11;404
12;426
13;447
14;465
15;480
0;492
1;501
2;513
3;526
4;537
5;547
6;557
7;563
8;569
9;572
10;569
11;567
12;567
13;568
14;570
15;574
0;578
1;580
2;580
3;579
4;577
5;579
6;581
7;583
8;583
9;582
10;580
11;578
12;576
13;575
14;574
15;571
0;568
1;566
2;562
3;558
4;554
5;550
6;550
7;552
8;549
9;536
10;526
11;523
12;526
13;530
14;527
15;512
0;508
1;510
2;516
3;522
4;530
5;530
6;517
7;507
8;505
9;508
10;512
11;511
12;504
13;504
14;512
15;519
0;522
1;523
2;519
3;515
4;513
5;511
6;511
7;510
8;509
9;508
10;508
11;511
12;511
13;511
14;513
15;516
0;519
1;517
2;517
3;518
4;518
5;517
6;520
7;521
8;516
9;511
10;510
11;506
12;503
13;500
14;498
15;498
0;497
1;497
2;499
3;501
4;502
5;503
6;502
7;499
8;498
9;499
10;499
11;496
12;496
13;495
14;493
15;495
0;498
1;499
2;500
3;503
4;500
5;494
6;492
7;489
8;490
9;493
10;483
11;475
12;475
13;476
14;476
15;475
0;477
1;477
2;478
3;481
4;481
5;481
6;478
7;475
8;473
9;473
10;474
11;474
12;476
13;479
14;481
15;481
0;477
1;476
2;480
3;486
4;493
5;489
6;491
7;491
8;485
9;486
10;493
11;499
12;492
13;482
14;470
15;463
0;468
1;478
2;484
3;487
4;487
5;492
6;498
7;501
8;502
9;505
10;508
11;511
12;507
13;499
14;490
15;486
0;491
1;495
2;495
3;494
4;496
5;498
6;496
7;500
8;505
9;508
10;510
11;512
12;517
13;521
14;525
15;527
0;527
1;529
2;527
3;518
4;509
5;505
6;509
7;512
8;515
9;513
10;511
11;510
12;507
13;504
14;505
15;505
0;504
1;504
2;507
3;510
4;513
5;514
6;517
7;519
8;516
9;516
10;513
11;511
12;516
13;522
14;523
15;524
0;524
1;522
2;516
3;521
4;527
5;511
6;485
7;473
8;476
9;489
10;494
11;489
12;484
13;478
14;469
15;470
0;475
1;476
2;471
3;469
4;471
5;480
6;488
7;493
8;500
9;507
10;510
11;506
12;503
13;504
14;503
15;503
0;501
1;500
2;498
3;499
4;503
5;508
6;512
7;516
8;517
9;517
10;520
11;524
12;526
13;525
14;523
15;523
0;526
1;531
2;534
3;533
4;534
5;536
6;538
7;542
8;540
9;538
10;542
11;551
12;560
13;563
14;565
15;562
0;547
1;534
2;536
3;541
4;546
5;552
6;562
7;572
8;581
9;587
10;588
11;578
12;556
13;535
14;520
15;509
0;505
1;504
2;513
3;527
4;536
5;537
6;538
7;541
8;539
9;535
10;534
11;538
12;545
13;546
14;543
15;542
0;545
1;547
2;550
3;555
4;560
5;561
6;566
7;570
8;571
9;571
10;570
11;566
12;565
13;564
14;563
15;561
0;560
1;559
2;561
3;560
4;559
5;560
6;562
7;566
8;570
9;573
10;578
11;582
12;583
13;587
14;595
15;598
0;602
1;607
2;613
3;617
4;625
5;634
6;640
7;644
8;643
9;640
10;640
11;644
12;649
13;654
14;657
15;643
0;620
1;602
2;581
3;555
4;535
5;526
6;519
7;509
8;499
9;485
10;462
11;430
12;393
13;354
14;324
15;305
0;296
1;295
2;300
3;309
4;326
5;345
6;365
7;388
8;411
9;430
10;445
11;457
12;467
13;479
14;493
15;506
0;513
1;525
2;536
3;545
4;551
5;554
6;559
7;563
8;569
9;574
10;581
11;583
12;585
13;583
14;586
15;587
0;588
1;592
2;590
3;586
4;584
5;585
6;586
7;587
8;583
9;578
10;576
11;575
12;575
13;573
14;574
15;572
0;570
1;564
2;560
3;556
4;551
5;544
6;540
7;542
8;547
9;551
10;554
11;548
12;534
13;530
14;529
15;527
0;523
1;518
2;513
3;508
4;507
5;506
6;502
7;501
8;504
9;502
10;499
11;504
12;507
13;509
14;508
15;506
0;507
1;510
2;511
3;508
4;508
5;508
6;505
7;509
8;512
9;518
10;516
11;514
12;512
13;508
14;498
15;491
0;492
1;492
2;491
3;491
4;494
5;496
6;496
7;497
8;503
9;510
10;514
11;513
12;512
13;513
14;514
15;512
0;510
1;508
2;502
3;496
4;500
5;511
6;506
7;496
8;485
9;482
10;487
11;494
12;499
13;500
14;500
15;504
0;505
1;502
2;487
3;473
4;467
5;466
6;467
7;466
8;469
9;471
10;469
11;468
12;470
13;470
14;476
15;481
0;485
1;491
2;490
3;482
4;476
5;476
6;476
7;479
8;482
9;483
10;485
11;488
12;492
13;496
14;498
15;496
0;495
1;496
2;496
3;497
4;495
5;495
6;495
7;495
8;496
9;494
10;491
11;492
12;496
13;503
14;506
15;505
0;495
1;486
2;485
3;489
4;493
5;498
6;509
7;512
8;508
9;502
10;490
11;481
12;485
13;496
14;505
15;512
0;513
1;514
2;513
3;511
4;502
5;500
6;504
7;509
8;511
9;510
10;509
11;507
12;501
13;495
14;499
15;502
0;503
1;507
2;508
3;503
4;497
5;495
6;496
7;498
8;499
9;500
10;502
11;501
12;499
13;496
14;496
15;495
0;494
1;493
2;493
3;494
4;497
5;502
6;503
7;505
8;507
9;509
10;508
11;508
12;508
13;507
14;507
15;506
0;508
1;513
2;517
3;519
4;520
5;521
6;519
7;519
8;517
9;511
10;506
11;501
12;494
13;489
14;489
15;487
0;487
1;487
2;483
3;483
4;489
5;492
6;491
7;494
8;503
9;511
10;520
11;529
12;531
13;526
14;517
15;506
0;501
1;501
2;498
3;498
4;503
5;508
6;508
7;509
8;509
9;512
10;518
11;523
12;518
13;516
14;518
15;512
0;510
1;516
2;523
3;526
4;527
5;524
6;521
7;523
8;526
9;531
10;536
11;537
12;537
13;536
14;539
15;539
0;539
1;545
2;544
3;542
4;540
5;546
6;547
7;549
8;556
9;556
10;556
11;560
12;564
13;569
14;571
15;569
0;567
1;568
2;571
3;572
4;574
5;575
6;573
7;574
8;575
9;574
10;569
11;567
12;577
13;584
14;584
15;577
0;568
1;547
2;529
3;521
4;519
5;522
6;529
7;539
8;548
9;551
10;547
11;541
12;544
13;547
14;546
15;544
0;545
1;547
2;546
3;548
4;553
5;560
6;565
7;569
8;571
9;574
10;575
11;576
12;577
13;576
14;581
15;591
0;600
1;605
2;612
3;618
4;622
5;625
6;625
7;626
8;629
9;628
10;625
11;627
12;626
13;620
14;611
15;604
0;598
1;590
2;582
3;572
4;563
5;551
6;534
7;515
8;494
9;468
10;432
11;395
12;367
13;350
14;348
15;349
0;354
1;361
2;376
3;381
4;388
5;403
6;416
7;427
8;440
9;454
10;465
11;472
12;481
13;487
14;493
15;503
0;508
1;514
2;526
3;533
4;536
5;542
6;551
7;556
8;554
9;555
10;559
11;565
12;572
13;575
14;571
15;568
0;564
1;563
2;565
3;565
4;567
5;565
6;558
7;539
8;531
9;532
10;535
11;532
12;527
13;529
14;535
15;539
0;541
1;543
2;539
3;532
4;527
5;524
6;522
7;519
8;518
9;519
10;523
11;536
12;539
13;537
14;533
15;522
0;511
1;508
2;507
3;506
4;504
5;501
6;504
7;506
8;508
9;510
10;512
11;511
12;512
13;512
14;514
15;512
0;511
1;509
2;512
3;516
4;521
5;526
6;525
7;519
8;508
9;498
10;494
11;491
12;488
13;488
14;492
15;493
0;499
1;505
2;508
3;505
4;506
5;511
6;513
7;510
8;508
9;511
10;514
11;517
12;519
13;514
14;500
15;494
0;493
1;492
2;490
3;492
4;496
5;497
6;495
7;492
8;488
9;485
10;486
11;490
12;490
13;489
14;490
15;492
0;491
1;492
2;490
3;488
4;488
5;487
6;485
7;483
8;482
9;483
10;482
11;482
12;485
13;487
14;489
15;487
0;491
1;496
2;492
3;485
4;477
5;473
6;464
7;454
8;450
9;451
10;451
11;451
12;458
13;465
14;467
15;465
0;465
1;467
2;469
3;467
4;468
5;466
6;459
7;454
8;451
9;461
10;464
11;466
12;474
13;483
14;488
15;493
0;496
1;499
2;498
3;498
4;500
5;503
6;508
7;510
8;508
9;507
10;508
11;508
12;501
13;496
14;494
15;494
0;501
1;507
2;509
3;510
4;513
5;516
6;515
7;512
8;511
9;507
10;506
11;507
12;500
13;490
14;486
15;485
0;486
1;489
2;491
3;491
4;491
5;490
6;489
7;490
8;490
9;493
10;495
11;491
12;489
13;492
14;495
15;498
0;501
1;498
2;496
3;495
4;493
5;491
6;486
7;482
8;476
9;474
10;474
11;472
12;471
13;472
14;472
15;475
0;480
1;484
2;488
3;493
4;497
5;502
6;502
7;499
8;496
9;497
10;498
11;495
12;494
13;488
14;482
15;481
0;488
1;499
2;511
3;507
4;493
5;479
6;474
7;470
8;470
9;470
10;471
11;476
12;480
13;486
14;492
15;494
0;496
1;502
2;510
3;512
4;513
5;514
6;513
7;509
8;508
9;511
10;514
11;517
12;519
13;517
14;519
15;512
0;504
1;504
2;510
3;516
4;522
5;524
6;522
7;519
8;518
9;520
10;524
11;529
12;533
13;536
14;536
15;536
0;538
1;537
2;537
3;535
4;534
5;535
6;537
7;538
8;537
9;536
10;537
11;539
12;540
13;539
14;542
15;546
0;546
1;545
2;547
3;547
4;548
5;550
6;546
7;542
8;540
9;537
10;532
11;530
12;531
13;536
14;541
15;541
0;539
1;539
2;541
3;550
4;560
5;562
6;549
7;533
8;521
9;503
10;498
11;503
12;507
13;516
14;527
15;535
0;538
1;546
2;560
3;566
4;566
5;557
6;550
7;550
8;550
9;546
10;544
11;547
12;556
13;560
14;562
15;567
0;574
1;579
2;585
3;594
4;602
5;609
6;615
7;619
8;613
9;600
10;597
11;596
12;599
13;602
14;601
15;590
0;577
1;560
2;543
3;524
4;501
5;481
6;461
7;433
8;400
9;373
10;350
11;334
12;332
13;345
14;361
15;378
0;391
1;408
2;421
3;433
4;441
5;448
6;455
7;460
8;468
9;472
10;475
11;478
12;483
13;493
14;501
15;506
0;512
1;516
2;519
3;525
4;532
5;541
6;556
7;569
8;572
9;569
10;564
11;563
12;561
13;561
14;564
15;566
0;562
1;554
2;551
3;547
4;546
5;549
6;551
7;544
8;521
9;507
10;509
11;506
12;497
13;491
14;486
15;484
0;484
1;487
2;484
3;479
4;477
5;475
6;474
7;479
8;485
9;494
10;500
11;507
12;510
13;504
14;499
15;499
0;501
1;502
2;502
3;503
4;504
5;506
6;508
7;508
8;507
9;506
10;502
11;496
12;492
13;488
14;491
15;494
0;493
1;493
2;494
3;495
4;493
5;492
6;492
7;491
8;491
9;492
10;494
11;495
12;495
13;495
14;495
15;495
0;495
1;496
2;500
3;502
4;498
5;497
6;501
7;506
8;507
9;509
10;510
11;511
12;515
13;513
14;507
15;505
0;502
1;492
2;483
3;475
4;466
5;459
6;457
7;455
8;451
9;446
10;446
11;449
12;455
13;462
14;470
15;475
0;475
1;471
2;468
3;468
4;471
5;473
6;470
7;471
8;477
9;478
10;478
11;469
12;455
13;449
14;447
15;451
0;460
1;468
2;475
3;472
4;465
5;456
6;450
7;443
8;439
9;443
10;452
11;459
12;464
13;466
14;463
15;462
0;461
1;461
2;464
3;467
4;467
5;467
6;468
7;472
8;471
9;472
10;477
11;481
12;479
13;479
14;480
15;482
0;486
1;483
2;481
3;483
4;487
5;491
6;494
7;496
8;502
9;508
10;508
11;507
12;504
13;497
14;497
15;504
0;511
1;519
2;521
3;512
4;499
5;486
6;484
7;488
8;485
9;479
10;476
11;477
12;477
13;475
14;476
15;475
0;476
1;481
2;482
3;489
4;500
5;503
6;498
7;496
8;494
9;488
10;487
11;484
12;481
13;481
14;483
15;478
0;471
1;468
2;466
3;471
4;476
5;472
6;467
7;463
8;465
9;474
10;480
11;479
12;474
13;475
14;480
15;481
0;482
1;483
2;486
3;490
4;494
5;497
6;496
7;494
8;493
9;491
10;487
11;481
12;473
13;468
14;467
15;467
0;470
1;477
2;486
3;494
4;500
5;506
6;509
7;502
8;491
9;479
10;465
11;450
12;434
13;431
14;443
15;453
0;462
1;470
2;478
3;491
4;503
5;508
6;509
7;505
8;495
9;485
10;483
11;487
12;493
13;496
14;497
15;501
0;504
1;502
2;499
3;504
4;508
5;505
6;501
7;501
8;510
9;523
10;535
11;546
12;547
13;551
14;552
15;549
0;542
1;533
2;527
3;523
4;520
5;525
6;528
7;527
8;530
9;534
10;537
11;541
12;543
13;544
14;547
15;549
0;539
1;523
2;504
3;497
4;503
5;507
6;516
7;519
8;520
9;524
10;532
11;527
12;524
13;528
14;529
15;526
0;524
1;521
2;528
3;537
4;539
5;537
6;533
7;520
8;515
9;521
10;530
11;534
12;530
13;527
14;525
15;523
0;525
1;526
2;528
3;526
4;524
5;526
6;530
7;539
8;547
9;550
10;553
11;562
12;571
13;573
14;568
15;567
0;572
1;580
2;588
3;592
4;596
5;601
6;609
7;618
8;623
9;626
10;631
11;632
12;624
13;614
14;611
15;614
0;605
1;594
2;583
3;571
4;550
5;513
6;486
7;469
8;447
9;425
10;403
11;373
12;349
13;329
14;313
15;300
0;295
1;304
2;323
3;343
4;362
5;383
6;404
7;422
8;431
9;440
10;453
11;466
12;477
13;488
14;496
15;499
0;499
1;496
2;496
3;505
4;512
5;522
6;535
7;540
8;543
9;540
10;542
11;549
12;559
13;565
14;564
15;560
0;558
1;561
2;567
3;573
4;576
5;574
6;569
7;562
8;552
9;548
10;549
11;550
12;549
13;546
14;539
15;535
0;534
1;529
2;526
3;526
4;529
5;534
6;540
7;543
8;547
9;554
10;550
11;539
12;525
13;520
14;513
15;494
0;481
1;480
2;480
3;481
4;486
5;497
6;511
7;510
8;499
9;494
10;496
11;496
12;499
13;502
14;507
15;507
0;507
1;510
2;509
3;505
4;504
5;505
6;506
7;508
8;509
9;512
10;512
11;511
12;512
13;514
14;507
15;498
0;493
1;495
2;500
3;501
4;503
5;504
6;500
7;499
8;504
9;510
10;509
11;509
12;507
13;501
14;496
15;492
0;492
1;488
2;488
3;490
4;493
5;494
6;496
7;497
8;499
9;499
10;495
11;486
12;478
13;481
14;495
15;504
0;505
1;495
2;476
3;464
4;460
5;458
6;462
7;469
8;473
9;475
10;468
11;456
12;452
13;453
14;450
15;449
0;456
1;463
2;461
3;455
4;450
5;451
6;455
7;459
8;461
9;460
10;461
11;466
12;470
13;471
14;472
15;471
0;472
1;474
2;480
3;486
4;487
5;486
6;486
7;485
8;487
9;485
10;481
11;480
12;478
13;475
14;473
15;473
0;476
1;479
2;484
3;490
4;493
5;497
6;501
7;503
8;504
9;502
10;504
11;496
12;487
13;491
14;497
15;494
0;488
1;483
2;486
3;495
4;495
5;490
6;489
7;497
8;505
9;512
10;516
11;518
12;515
13;511
14;511
15;504
0;498
1;502
2;507
3;509
4;505
5;495
6;489
7;492
8;497
9;501
10;502
11;498
12;492
13;488
14;485
15;479
0;476
1;479
2;485
3;489
4;495
5;502
6;507
7;511
8;513
9;509
10;504
11;501
12;499
13;495
14;489
15;487
0;486
1;486
2;484
3;486
4;485
5;481
6;481
7;483
8;478
9;476
10;479
11;485
12;481
13;477
14;477
15;476
0;477
1;481
2;483
3;488
4;483
5;476
6;475
7;478
8;485
9;489
10;490
11;488
12;488
13;492
14;496
15;501
0;507
1;509
2;509
3;510
4;514
5;521
6;526
7;526
8;527
9;526
10;523
11;515
12;512
13;513
14;518
15;521
0;523
1;521
2;514
3;506
4;502
5;505
6;505
7;508
8;511
9;510
10;507
11;508
12;519
13;531
14;538
15;533
0;519
1;508
2;504
3;508
4;513
5;516
6;521
7;528
8;537
9;539
10;539
11;543
12;545
13;556
14;562
15;556
0;539
1;532
2;536
3;540
4;540
5;539
6;540
7;540
8;543
9;545
10;548
11;550
12;549
13;550
14;555
15;560
0;567
1;565
2;551
3;537
4;532
5;535
6;536
7;541
8;549
9;553
10;553
11;551
12;549
13;546
14;542
15;541
0;542
1;542
2;546
3;549
4;549
5;552
6;553
7;553
8;556
9;562
10;567
11;570
12;569
13;569
14;571
15;573
0;577
1;580
2;583
3;591
4;596
5;598
6;601
7;606
8;614
9;627
10;639
11;650
12;657
13;657
14;643
15;615
0;595
1;588
2;581
3;571
4;568
5;566
6;561
7;555
8;543
9;529
10;513
11;500
12;480
13;448
14;407
15;363
0;323
1;304
2;297
3;296
4;297
5;299
6;306
7;320
8;335
9;355
10;379
11;400
12;422
13;441
14;456
15;469
0;479
1;487
2;494
3;505
4;520
5;526
6;525
7;530
8;538
9;547
10;552
11;554
12;555
13;556
14;562
15;566
0;572
1;577
2;578
3;579
4;581
5;579
6;577
7;579
8;582
9;583
10;579
11;574
12;568
13;566
14;566
15;564
0;561
1;558
2;554
3;550
4;546
5;546
6;543
7;538
8;535
9;533
10;530
11;527
12;525
13;524
14;526
15;527
0;525
1;523
2;524
3;525
4;531
5;534
6;532
7;531
8;530
9;526
10;518
11;510
12;502
13;495
14;487
15;480
0;483
1;492
2;500
3;506
4;501
5;494
6;486
7;485
8;490
9;495
10;499
11;507
12;511
13;505
14;499
15;497
0;500
1;503
2;503
3;502
4;501
5;504
6;505
7;505
8;505
9;505
10;504
11;503
12;503
13;505
14;504
15;503
0;506
1;508
2;509
3;507
4;500
5;496
6;497
7;500
8;498
9;494
10;492
11;491
12;490
13;495
14;490
15;485
0;481
1;480
2;481
3;482
4;487
5;488
6;487
7;490
8;492
9;497
10;511
11;519
12;516
13;507
14;476
15;442
0;428
1;431
2;441
3;450
4;457
5;463
6;462
7;454
8;455
9;461
10;465
11;464
12;462
13;462
14;463
15;466
0;472
1;475
2;476
3;476
4;475
5;474
6;477
7;479
8;482
9;482
10;482
11;481
12;483
13;487
14;492
15;497
0;495
1;495
2;497
3;499
4;503
5;502
6;498
7;494
8;491
9;488
10;486
11;486
12;488
13;490
14;494
15;496
0;499
1;503
2;505
3;513
4;523
5;532
6;531
7;516
8;498
9;491
10;490
11;486
12;479
13;477
14;482
15;489
0;503
1;515
2;520
3;518
4;513
5;513
6;513
7;516
8;513
9;507
10;502
11;500
12;493
13;489
14;489
15;489
0;490
1;489
2;488
3;487
4;488
5;491
6;491
7;494
8;496
9;500
10;504
11;509
12;515
13;522
14;522
15;519
0;513
1;508
2;508
3;504
4;492
5;481
6;482
7;483
8;478
9;474
10;473
11;476
12;481
13;487
14;493
15;491
0;484
1;477
2;475
3;476
4;475
5;471
6;473
7;478
8;482
9;488
10;495
11;498
12;496
13;488
14;483
15;484
0;487
1;491
2;495
3;497
4;499
5;503
6;508
7;513
8;516
9;519
10;517
11;515
12;518
13;519
14;518
15;510
0;507
1;509
2;514
3;519
4;522
5;519
6;522
7;525
8;527
9;527
10;531
11;540
12;549
13;554
14;554
15;535
0;505
1;497
2;501
3;508
4;511
5;518
6;526
7;531
8;534
9;533
10;531
11;532
12;533
13;531
14;534
15;536
0;535
1;534
2;537
3;541
4;545
5;548
6;551
7;556
8;562
9;567
10;574
11;574
12;569
13;562
14;546
15;532
0;531
1;531
2;530
3;531
4;532
5;535
6;540
7;543
8;548
9;555
10;562
11;565
12;562
13;555
14;549
15;546
0;543
1;539
2;534
3;531
4;529
5;528
6;529
7;534
8;543
9;553
10;557
11;561
12;561
13;554
14;547
15;550
0;555
1;557
2;556
3;560
4;569
5;577
6;582
7;588
8;597
9;603
10;606
11;614
12;621
13;627
14;633
15;638
0;637
1;636
2;641
3;641
4;629
5;617
6;606
7;592
8;575
9;560
10;546
11;531
12;521
13;510
14;489
15;467
0;441
1;411
2;374
3;330
4;298
5;287
6;284
7;284
8;293
9;311
10;333
11;355
12;380
13;404
14;422
15;434
0;446
1;458
2;470
3;482
4;487
5;496
6;510
7;521
8;533
9;546
10;559
11;568
12;571
13;567
14;562
15;560
0;562
1;562
2;553
3;538
4;536
5;544
6;553
7;560
8;560
9;563
10;570
11;574
12;574
13;575
14;576
15;575
0;575
1;572
2;567
3;563
4;561
5;559
6;555
7;543
8;536
9;532
10;525
11;520
12;521
13;522
14;521
15;516
0;513
1;513
2;515
3;518
4;519
5;520
6;519
7;515
8;512
9;511
10;507
11;504
12;504
13;507
14;514
15;523
0;529
1;534
2;534
3;532
4;525
5;510
6;497
7;491
8;488
9;487
10;488
11;493
12;491
13;486
14;484
15;487
0;487
1;484
2;486
3;493
4;498
5;492
6;483
7;482
8;484
9;485
10;489
11;492
12;496
13;502
14;502
15;496
0;492
1;483
2;472
3;474
4;484
5;491
6;493
7;492
8;492
9;491
10;489
11;486
12;484
13;481
14;481
15;480
0;478
1;480
2;481
3;480
4;478
5;477
6;475
7;475
8;479
9;483
10;488
11;487
12;484
13;480
14;479
15;479
0;482
1;481
2;477
3;476
4;478
5;481
6;482
7;481
8;480
9;478
10;476
11;476
12;477
13;477
14;476
15;474
0;474
1;473
2;477
3;481
4;487
5;497
6;509
7;511
8;500
9;486
10;476
11;464
12;459
13;459
14;451
15;455
0;468
1;475
2;478
3;483
4;486
5;491
6;498
7;500
8;499
9;489
10;474
11;466
12;472
13;479
14;483
15;491
0;491
1;490
2;485
3;485
4;492
5;494
6;490
7;487
8;492
9;501
10;506
11;508
12;509
13;506
14;499
15;493
0;492
1;499
2;505
3;512
4;515
5;517
6;517
7;517
8;517
9;512
10;510
11;510
12;506
13;500
14;495
15;494
0;496
1;497
2;497
3;494
4;492
5;488
6;486
7;486
8;486
9;486
10;484
11;483
12;484
13;487
14;491
15;498
0;504
1;504
2;502
3;504
4;509
5;507
6;508
7;524
8;525
9;499
10;476
11;469
12;467
13;463
14;456
15;451
0;451
1;455
2;459
3;466
4;470
5;474
6;480
7;485
8;487
9;483
10;482
11;477
12;470
13;470
14;476
15;479
0;480
1;486
2;491
3;490
4;491
5;495
6;494
7;493
8;492
9;491
10;491
11;491
12;492
13;492
14;496
15;501
0;504
1;509
2;510
3;508
4;506
5;510
6;513
7;518
8;524
9;529
10;525
11;523
12;520
13;521
14;527
15;537
0;540
1;535
2;542
3;545
4;545
5;540
6;531
7;522
8;522
9;515
10;515
11;528
12;537
13;542
14;542
15;545
0;544
1;541
2;532
3;530
4;525
5;526
6;534
7;543
8;547
9;542
10;540
11;542
12;539
13;531
14;523
15;514
0;514
1;516
2;518
3;525
4;533
5;539
6;540
7;538
8;541
9;544
10;547
11;546
12;544
13;544
14;541
15;538
0;539
1;541
2;543
3;545
4;550
5;553
6;552
7;549
8;545
9;542
10;537
11;527
12;522
13;533
14;545
15;549
0;546
1;543
2;544
3;549
4;555
5;561
6;567
7;569
8;571
9;571
10;577
11;584
12;595
13;606
14;617
15;621
0;614
1;609
2;606
3;601
4;594
5;585
6;581
7;582
8;590
9;587
10;578
11;575
12;563
13;536
14;504
15;485
0;475
1;465
2;447
3;423
4;395
5;370
6;351
7;339
8;340
9;347
10;352
11;357
12;366
13;376
14;388
15;402
0;419
1;433
2;444
3;455
4;466
5;472
6;474
7;475
8;472
9;473
10;483
11;496
12;510
13;523
14;535
15;539
0;544
1;549
2;552
3;557
4;554
5;553
6;556
7;560
8;563
9;571
10;574
11;575
12;574
13;571
14;568
15;567
0;563
1;554
2;547
3;543
4;541
5;541
6;543
7;544
8;545
9;542
10;539
11;539
12;538
13;538
14;542
15;546
0;552
1;548
2;532
3;515
4;502
5;495
6;487
7;489
8;496
9;501
10;505
11;507
12;510
13;509
14;508
15;511
0;515
1;521
2;523
3;519
4;508
5;498
6;497
7;498
8;500
9;503
10;507
11;505
12;508
13;512
14;509
15;503
0;496
1;495
2;496
3;495
4;486
5;479
6;479
7;475
8;473
9;479
10;487
11;496
12;507
13;513
14;515
15;515
0;510
1;501
2;495
3;490
4;485
5;486
6;486
7;484
8;482
9;480
10;481
11;488
12;494
13;497
14;493
15;489
0;483
1;481
2;478
3;475
4;472
5;473
6;476
7;475
8;476
9;478
10;478
11;481
12;480
13;476
14;473
15;474
0;475
1;477
2;480
3;481
4;484
5;487
6;486
7;482
8;481
9;483
10;485
11;489
12;495
13;494
14;491
15;487
0;479
1;477
2;479
3;480
4;480
5;481
6;482
7;481
8;486
9;491
10;488
11;479
12;464
13;450
14;454
15;471
0;480
1;482
2;486
3;487
4;484
5;474
6;472
7;476
8;483
9;488
10;494
11;496
12;495
13;496
14;497
15;496
0;490
1;489
2;495
3;501
4;508
5;511
6;512
7;518
8;523
9;518
10;513
11;512
12;508
13;503
14;505
15;512
0;516
1;517
2;517
3;513
4;513
5;511
6;510
7;511
8;515
9;519
10;521
11;521
12;518
13;516
14;518
15;524
0;525
1;525
2;522
3;514
4;511
5;506
6;510
7;521
8;511
9;492
10;477
11;467
12;473
13;479
14;480
15;481
0;488
1;497
2;507
3;516
4;517
5;511
6;505
7;496
8;489
9;485
10;485
11;492
12;492
13;487
14;491
15;497
0;493
1;492
2;490
3;489
4;494
5;499
6;498
7;491
8;489
9;485
10;481
11;478
12;477
13;480
14;485
15;491
0;490
1;489
2;488
3;495
4;508
5;516
6;514
7;504
8;480
9;465
10;473
11;486
12;495
13;502
14;504
15;501
0;497
1;497
2;503
3;512
4;520
5;527
6;529
7;527
8;529
9;534
10;537
11;538
12;540
13;528
14;512
15;509
0;509
1;508
2;500
3;501
4;513
5;524
6;529
7;524
8;525
9;529
10;536
11;550
12;565
13;569
14;563
15;551
0;536
1;521
2;514
3;515
4;514
5;516
6;523
7;528
8;536
9;542
10;543
11;546
12;547
13;551
14;551
15;546
0;545
1;546
2;548
3;547
4;545
5;540
6;537
7;538
8;538
9;538
10;539
11;536
12;531
13;530
14;533
15;536
0;540
1;545
2;550
3;552
4;550
5;548
6;548
7;551
8;550
9;548
10;546
11;545
12;544
13;544
14;544
15;542
0;542
1;547
2;548
3;549
4;551
5;553
6;556
7;559
8;570
9;587
10;599
11;611
12;615
13;619
14;604
15;583
0;567
1;556
2;550
3;549
4;556
5;560
6;561
7;566
8;574
9;579
10;579
11;579
12;580
13;575
14;568
15;560
0;550
1;543
2;537
3;532
4;524
5;512
6;496
7;472
8;440
9;410
10;389
11;364
12;349
13;349
14;353
15;359
0;371
1;385
2;401
3;414
4;427
5;439
6;449
7;459
8;466
9;474
10;480
11;483
12;486
13;494
14;503
15;513
0;520
1;526
2;529
3;524
4;521
5;522
6;528
7;534
8;541
9;543
10;540
11;544
12;552
13;558
14;568
15;575
0;576
1;571
2;569
3;569
4;556
5;544
6;540
7;538
8;534
9;534
10;530
11;527
12;524
13;524
14;527
15;530
0;531
1;531
2;531
3;530
4;525
5;523
6;520
7;520
8;521
9;522
10;520
11;518
12;518
13;521
14;525
15;524
0;520
1;514
2;514
3;514
4;511
5;511
6;511
7;512
8;512
9;512
10;513
11;516
12;520
13;516
14;512
15;510
0;503
1;502
2;507
3;511
4;505
5;492
6;486
7;487
8;492
9;496
10;497
11;490
12;479
13;477
14;483
15;495
0;502
1;510
2;514
3;511
4;511
5;504
6;490
7;482
8;484
9;487
10;487
11;489
12;492
13;492
14;496
15;497
0;492
1;488
2;487
3;484
4;481
5;480
6;483
7;486
8;488
9;486
10;485
11;484
12;482
13;483
14;487
15;494
0;499
1;500
2;495
3;487
4;482
5;476
6;473
7;474
8;479
9;484
10;488
11;490
12;490
13;490
14;492
15;493
0;491
1;487
2;482
3;479
4;478
5;477
6;475
7;471
8;470
9;467
10;462
11;449
12;443
13;459
14;472
15;476
0;472
1;467
2;463
3;457
4;453
5;453
6;460
7;463
8;456
9;457
10;464
11;467
12;467
13;469
14;472
15;477
0;482
1;489
2;493
3;492
4;492
5;494
6;496
7;497
8;498
9;500
10;503
11;506
12;511
13;512
14;510
15;506
0;503
1;503
2;504
3;509
4;515
5;518
6;514
7;512
8;513
9;511
10;508
11;507
12;507
13;507
14;509
15;509
0;510
1;511
2;515
3;519
4;519
5;521
6;520
7;519
8;515
9;513
10;516
11;518
12;524
13;527
14;523
15;519
0;508
1;496
2;488
3;479
4;467
5;471
6;495
7;515
8;519
9;520
10;504
11;483
12;473
13;469
14;478
15;488
0;494
1;499
2;497
3;485
4;481
5;486
6;489
7;492
8;494
9;496
10;494
11;494
12;492
13;496
14;492
15;487
0;487
1;491
2;493
3;493
4;492
5;491
6;491
7;492
8;495
9;497
10;496
11;495
12;496
13;497
14;498
15;497
0;498
1;499
2;501
3;502
4;505
5;509
6;511
7;512
8;513
9;515
10;518
11;521
12;526
13;529
14;527
15;525
0;524
1;521
2;521
3;524
4;525
5;528
6;535
7;540
8;537
9;529
10;528
11;534
12;540
13;541
14;540
15;536
0;519
1;517
2;515
3;509
4;504
5;508
6;513
7;512
8;515
9;521
10;530
11;535
12;540
13;543
14;544
15;540
0;538
1;540
2;540
3;543
4;546
5;548
6;552
7;551
8;547
9;546
10;545
11;547
12;548
13;553
14;553
15;553
0;553
1;552
2;548
3;547
4;548
5;548
6;551
7;551
8;551
9;552
10;554
11;553
12;545
13;541
14;545
15;549
0;548
1;541
2;535
3;535
4;543
5;551
6;559
7;563
8;565
9;559
10;549
11;542
12;536
13;535
14;550
15;569
0;589
1;607
2;616
3;600
4;583
5;577
6;575
7;572
8;571
9;579
10;587
11;593
12;598
13;603
14;611
15;620
0;627
1;631
2;628
3;620
4;608
5;598
6;596
7;587
8;564
9;544
10;533
11;527
12;514
13;490
14;465
15;438
0;407
1;374
2;346
3;333
4;327
5;327
6;332
7;343
8;355
9;370
10;390
11;409
12;428
13;446
14;462
15;473
0;480
1;476
2;468
3;468
4;471
5;478
6;491
7;505
8;518
9;528
10;538
11;545
12;550
13;551
14;554
15;556
0;565
1;583
2;600
3;608
4;609
5;587
6;556
7;535
8;521
9;522
10;526
11;528
12;527
13;530
14;535
15;537
0;541
1;545
2;549
3;549
4;546
5;543
6;541
7;542
8;542
9;544
10;546
11;549
12;554
13;556
14;554
15;542
0;530
1;518
2;509
3;506
4;506
5;512
6;520
7;525
8;526
9;525
10;521
11;515
12;515
13;515
14;517
15;521
0;526
1;532
2;537
3;538
4;537
5;528
6;506
7;484
8;472
9;467
10;468
11;467
12;468
13;474
14;480
15;487
0;494
1;496
2;500
3;501
4;500
5;498
6;497
7;500
8;507
9;513
10;516
11;517
12;512
13;502
14;496
15;500
0;504
1;502
2;497
3;495
4;490
5;487
6;488
7;486
8;485
9;488
10;483
11;480
12;479
13;481
14;487
15;493
0;492
1;493
2;496
3;493
4;485
5;480
6;477
7;476
8;479
9;483
10;486
11;489
12;486
13;477
14;470
15;464
0;462
1;461
2;458
3;460
4;463
5;468
6;470
7;472
8;472
9;476
10;478
11;480
12;480
13;480
14;478
15;480
0;492
1;510
2;527
3;535
4;519
5;473
6;444
7;431
8;428
9;429
10;430
11;437
12;451
13;464
14;470
15;468
0;467
1;466
2;467
3;470
4;474
5;479
6;478
7;479
8;479
9;486
10;498
11;513
12;523
13;521
14;498
15;462
0;444
1;449
2;464
3;476
4;480
5;484
6;485
7;485
8;488
9;492
10;496
11;499
12;499
13;500
14;498
15;504
0;507
1;505
2;505
3;505
4;504
5;502
6;499
7;496
8;501
9;503
10;499
11;497
12;497
13;501
14;508
15;517
0;520
1;515
2;493
3;480
4;487
5;489
6;489
7;497
8;510
9;508
10;493
11;480
12;480
13;483
14;483
15;482
0;478
1;457
2;435
3;426
4;432
5;442
6;445
7;443
8;444
9;457
10;472
11;486
12;496
13;503
14;508
15;511
0;511
1;511
2;509
3;504
4;499
5;494
6;491
7;488
8;484
9;479
10;477
11;480
12;482
13;482
14;481
15;480
0;482
1;487
2;494
3;499
4;504
5;506
6;510
7;512
8;512
9;508
10;504
11;506
12;507
13;509
14;512
15;513
0;519
1;534
2;545
3;545
4;539
5;518
6;492
7;474
8;478
9;487
10;492
11;496
12;508
13;517
14;519
15;519
0;517
1;522
2;536
3;547
4;554
5;554
6;544
7;534
8;536
9;540
10;525
11;505
12;498
13;507
14;513
15;512
0;514
1;521
2;531
3;536
4;538
5;537
6;537
7;539
8;544
9;552
10;563
11;573
12;575
13;571
14;551
15;531
0;516
1;522
2;533
3;533
4;534
5;541
6;551
7;559
8;563
9;566
10;564
11;563
12;570
13;576
14;584
15;595
0;594
1;577
2;553
3;532
4;512
5;498
6;504
7;517
8;529
9;543
10;558
11;568
12;571
13;570
14;571
15;572
0;579
1;574
2;566
3;555
4;545
5;543
6;544
7;551
8;562
9;574
10;588
11;600
12;608
13;617
14;624
15;627
0;632
1;639
2;647
3;645
4;638
5;633
6;634
7;636
8;635
9;630
10;623
11;615
