0;489
1;496
2;501
3;505
4;505
5;507
6;506
7;503
8;495
9;493
10;491
11;486
12;480
13;477
14;478
15;477
0;478
1;483
2;492
3;495
4;499
5;499
6;498
7;498
8;495
9;487
10;482
11;483
12;486
13;485
14;484
15;484
0;488
1;494
2;500
3;504
4;507
5;510
6;508
7;507
8;505
9;503
10;497
11;493
12;488
13;485
14;489
15;492
0;491
1;493
2;495
3;498
4;505
5;509
6;512
7;511
8;509
9;507
10;504
11;498
12;495
13;493
14;499
15;502
0;502
1;500
2;503
3;510
4;516
5;520
6;521
7;518
8;515
9;513
10;511
11;508
12;507
13;503
14;497
15;496
0;498
1;498
2;498
3;505
4;516
5;522
6;527
7;527
8;524
9;521
10;518
11;514
12;509
13;508
14;507
15;505
0;508
1;507
2;504
3;507
4;514
5;520
6;524
7;526
8;526
9;523
10;521
11;516
12;508
13;502
14;498
15;495
0;495
1;497
2;499
3;501
4;504
5;508
6;511
7;514
8;517
9;516
10;515
11;514
12;511
13;505
14;499
15;495
0;495
1;497
2;498
3;501
4;504
5;508
6;512
7;513
8;517
9;518
10;516
11;517
12;512
13;507
14;508
15;506
0;502
1;501
2;503
3;505
4;505
5;507
6;509
7;513
8;519
9;524
10;526
11;522
12;520
13;517
14;511
15;507
0;502
1;496
2;494
3;491
4;494
5;496
6;501
7;505
8;508
9;514
10;518
11;518
12;519
13;519
14;517
15;513
0;509
1;508
2;507
3;508
4;506
5;505
6;508
7;514
8;521
9;527
10;534
11;536
12;536
13;533
14;528
15;525
0;523
1;520
2;519
3;519
4;520
5;523
6;523
7;526
8;529
9;530
10;532
11;534
12;534
13;535
14;535
15;531
0;523
1;519
2;517
3;515
4;514
5;515
6;513
7;512
8;515
9;519
10;520
11;526
12;536
13;544
14;550
15;553
0;552
1;549
2;545
3;545
4;543
5;541
6;540
7;543
8;546
9;551
10;555
11;557
12;557
13;565
14;563
15;560
0;555
1;548
2;542
3;539
4;531
5;527
6;527
7;520
8;514
9;518
10;524
11;530
12;536
13;538
14;539
15;538
0;537
1;536
2;531
3;526
4;519
5;511
6;505
7;503
8;503
9;503
10;507
11;512
12;516
13;520
14;523
15;523
0;521
1;518
2;513
3;506
4;500
5;493
6;487
7;484
8;485
9;488
10;493
11;496
12;499
13;503
14;506
15;508
0;508
1;510
2;509
3;505
4;499
5;496
6;493
7;494
8;496
9;497
10;498
11;499
12;502
13;506
14;513
15;517
0;517
1;516
2;517
3;517
4;514
5;509
6;504
7;502
8;499
9;501
10;503
11;504
12;505
13;507
14;508
15;515
0;518
1;518
2;518
3;517
4;516
5;512
6;507
7;505
8;503
9;503
10;501
11;509
12;512
13;512
14;512
15;514
0;520
1;523
2;523
3;525
4;524
5;518
6;512
7;511
8;511
9;509
10;508
11;507
12;504
13;507
14;512
15;521
0;531
1;540
2;545
3;549
4;558
5;566
6;573
7;583
8;597
9;611
10;628
11;650
12;671
13;696
14;729
15;754
0;771
1;791
2;808
3;828
4;844
5;854
6;858
7;853
8;843
9;822
10;791
11;761
12;729
13;697
14;665
15;629
0;593
1;559
2;527
3;495
4;459
5;430
6;409
7;392
8;379
9;366
10;357
11;351
12;347
13;345
14;348
15;355
0;364
1;372
2;381
3;391
4;399
5;404
6;411
7;413
8;411
9;413
10;411
11;411
12;412
13;418
14;423
15;428
0;437
1;444
2;450
3;459
4;467
5;480
6;488
7;496
8;497
9;491
10;487
11;486
12;483
13;484
14;484
15;482
0;484
1;489
2;492
3;494
4;496
5;499
6;499
7;499
8;499
9;495
10;490
11;493
12;494
13;493
14;492
15;494
0;500
1;505
2;509
3;512
4;515
5;515
6;515
7;514
8;514
9;514
10;511
11;510
12;508
13;504
14;504
15;508
0;512
1;517
2;521
3;527
4;531
5;535
6;537
7;537
8;537
9;537
10;537
11;529
12;520
13;519
14;515
15;515
0;519
1;524
2;528
3;532
4;535
5;539
6;544
7;547
8;546
9;545
10;539
11;532
12;527
13;523
14;520
15;518
0;516
1;513
2;514
3;519
4;524
5;528
6;533
7;538
8;542
9;543
10;542
11;542
12;538
13;536
14;530
15;525
0;525
1;525
2;526
3;526
4;531
5;538
6;544
7;551
8;556
9;553
10;547
11;544
12;540
13;537
14;534
15;531
0;527
1;530
2;533
3;536
4;540
5;545
6;546
7;549
8;552
9;556
10;557
11;557
12;556
13;552
14;547
15;541
0;538
1;538
2;540
3;540
4;538
5;542
6;551
7;555
8;560
9;564
10;568
11;569
12;572
13;573
14;568
15;564
0;560
1;557
2;556
3;557
4;559
5;561
6;566
7;573
8;576
9;580
10;583
11;584
12;586
13;585
14;583
15;577
0;572
1;570
2;568
3;566
4;563
5;561
6;560
7;561
8;562
9;563
10;563
11;564
12;560
13;557
14;552
15;547
0;539
1;534
2;534
3;533
4;530
5;528
6;527
7;528
8;530
9;530
10;524
11;527
12;539
13;542
14;542
15;537
0;529
1;526
2;518
3;509
4;504
5;502
6;501
7;501
8;504
9;506
10;507
11;510
12;508
13;509
14;508
15;503
0;500
1;495
2;490
3;486
4;485
5;484
6;484
7;483
8;486
9;486
10;490
11;494
12;497
13;503
14;504
15;500
0;494
1;488
2;481
3;474
4;470
5;470
6;471
7;469
8;468
9;470
10;475
11;478
12;482
13;487
14;488
15;487
0;483
1;479
2;472
3;468
4;464
5;460
6;456
7;456
8;457
9;456
10;459
11;464
12;469
13;475
14;476
15;475
0;473
1;473
2;472
3;470
4;469
5;468
6;467
7;468
8;467
9;465
10;468
11;473
12;477
13;479
14;483
15;486
0;485
1;484
2;482
3;479
4;473
5;470
6;468
7;467
8;468
9;474
10;477
11;481
12;489
13;495
14;503
15;508
0;510
1;509
2;508
3;504
4;497
5;492
6;487
7;484
8;481
9;479
10;476
11;474
12;476
13;484
14;491
15;499
0;503
1;500
2;497
3;492
4;489
5;490
6;493
7;492
8;490
9;490
10;491
11;494
12;494
13;495
14;498
15;505
0;513
1;518
2;515
3;513
4;511
5;506
6;502
7;500
8;501
9;499
10;499
11;499
12;500
13;505
14;511
15;513
0;518
1;523
2;524
3;525
4;522
5;518
6;514
7;513
8;511
9;507
10;507
11;506
12;504
13;506
14;514
15;518
0;519
1;522
2;525
3;524
4;522
5;522
6;521
7;521
8;519
9;519
10;519
11;519
12;518
13;519
14;522
15;528
0;532
1;532
2;534
3;537
4;534
5;532
6;530
7;525
8;519
9;517
10;514
11;512
12;512
13;511
14;511
15;514
0;515
1;517
2;523
3;526
4;530
5;532
6;532
7;528
8;523
9;522
10;517
11;513
12;510
13;508
14;508
15;509
0;509
1;513
2;518
3;525
4;528
5;527
6;525
7;522
8;517
9;515
10;514
11;512
12;509
13;508
14;507
15;509
0;511
1;514
2;519
3;522
4;523
5;524
6;522
7;526
8;525
9;524
10;520
11;519
12;519
13;518
14;515
15;513
0;514
1;515
2;519
3;525
4;531
5;537
6;542
7;544
8;548
9;551
10;543
11;536
12;529
13;522
14;519
15;516
0;519
1;523
2;525
3;531
4;535
5;536
6;536
7;534
8;534
9;536
10;533
11;526
12;523
13;513
14;510
15;512
0;515
1;525
2;534
3;540
4;547
5;550
6;552
7;553
8;552
9;552
10;553
11;551
12;547
13;542
14;537
15;531
0;526
1;524
2;523
3;529
4;536
5;542
6;546
7;545
8;543
9;538
10;535
11;531
12;524
13;517
14;515
15;513
0;513
1;511
2;509
3;509
4;511
5;516
6;521
7;527
8;530
9;525
10;517
11;508
12;504
13;497
14;492
15;487
0;482
1;481
2;480
3;477
4;476
5;480
6;484
7;484
8;488
9;497
10;499
11;499
12;503
13;502
14;498
15;494
0;490
1;485
2;481
3;480
4;479
5;478
6;479
7;490
8;497
9;501
10;502
11;500
12;500
13;500
14;497
15;494
0;494
1;494
2;494
3;493
4;490
5;485
6;484
7;485
8;486
9;490
10;494
11;496
12;493
13;492
14;492
15;490
0;490
1;488
2;483
3;481
4;481
5;484
6;487
7;492
8;493
9;493
10;495
11;498
12;502
13;502
14;498
15;493
0;489
1;484
2;480
3;475
4;472
5;471
6;467
7;467
8;476
9;487
10;493
11;498
12;500
13;499
14;497
15;492
0;486
1;480
2;480
3;484
4;489
5;495
6;493
7;500
8;515
9;531
10;547
11;564
12;580
13;591
14;603
15;617
0;633
1;646
2;664
3;679
4;693
5;713
6;736
7;755
8;777
9;799
10;814
11;820
12;814
13;801
14;778
15;751
0;717
1;679
2;640
3;596
4;550
5;502
6;460
7;427
8;399
9;379
10;364
11;354
12;348
13;345
14;344
15;341
0;335
1;333
2;333
3;335
4;335
5;335
6;339
7;344
8;351
9;359
10;367
11;375
12;380
13;385
14;391
15;398
0;403
1;406
2;408
3;407
4;408
5;409
6;412
7;414
8;419
9;424
10;432
11;438
12;448
13;455
14;462
15;467
0;469
1;472
2;472
3;469
4;467
5;469
6;470
7;471
8;475
9;481
10;483
11;486
12;488
13;489
14;491
15;497
0;500
1;496
2;492
3;491
4;487
5;485
6;482
7;480
8;477
9;476
10;478
11;481
12;485
13;491
14;495
15;500
0;504
1;510
2;511
3;512
4;512
5;511
6;507
7;507
8;504
9;501
10;499
11;500
12;499
13;498
14;500
15;503
0;508
1;512
2;516
3;523
4;528
5;527
6;521
7;515
8;509
9;512
10;515
11;517
12;516
13;518
14;519
15;523
0;527
1;532
2;534
3;532
4;531
5;531
6;526
7;519
8;513
9;510
10;510
11;510
12;511
13;513
14;517
15;523
0;527
1;531
2;536
3;538
4;539
5;537
6;535
7;531
8;528
9;527
10;522
11;519
12;519
13;518
14;519
15;523
0;529
1;536
2;543
3;549
4;550
5;552
6;554
7;552
8;546
9;538
10;533
11;531
12;529
13;530
14;529
15;530
0;537
1;544
2;551
3;558
4;563
5;566
6;568
7;568
8;564
9;560
10;557
11;556
12;558
13;560
14;563
15;562
0;565
1;570
2;572
3;575
4;578
5;583
6;588
7;587
8;588
9;582
10;572
11;563
12;555
13;551
14;550
15;550
0;549
1;552
2;557
3;561
4;566
5;571
6;571
7;567
8;562
9;559
10;557
11;554
12;551
13;547
14;543
15;543
0;538
1;541
2;542
3;542
4;542
5;542
6;544
7;543
8;545
9;545
10;544
11;544
12;537
13;527
14;520
15;517
0;516
1;514
2;514
3;516
4;516
5;515
6;515
7;515
8;513
9;508
10;502
11;496
12;491
13;488
14;486
15;482
0;480
1;477
2;482
3;484
4;482
5;483
6;487
7;491
8;491
9;490
10;491
11;492
12;488
13;486
14;484
15;480
0;478
1;476
2;472
3;474
4;475
5;474
6;473
7;475
8;476
9;477
10;476
11;473
12;465
13;460
14;453
15;448
0;449
1;449
2;451
3;454
4;458
5;463
6;472
7;480
8;490
9;494
10;491
11;491
12;487
13;481
14;479
15;479
0;476
1;471
2;468
3;468
4;467
5;469
6;475
7;484
8;497
9;509
10;511
11;511
12;511
13;508
14;503
15;500
0;498
1;497
2;503
3;505
4;505
5;506
6;510
7;512
8;517
9;520
10;523
11;524
12;524
13;524
14;521
15;518
0;513
1;511
2;510
3;509
4;511
5;510
6;512
7;515
8;515
9;518
10;520
11;523
12;524
13;522
14;520
15;515
0;510
1;507
2;504
3;505
4;510
5;514
6;516
7;524
8;530
9;532
10;533
11;537
12;538
13;540
14;540
15;537
0;534
1;531
2;532
3;531
4;531
5;532
6;532
7;536
8;541
9;542
10;542
11;545
12;547
13;546
14;546
15;544
0;543
1;542
2;540
3;538
4;536
5;537
6;539
7;541
8;545
9;550
10;554
11;556
12;559
13;560
14;558
15;554
0;548
1;542
2;539
3;539
4;539
5;538
6;540
7;538
8;541
9;546
10;550
11;552
12;559
13;560
14;561
15;563
0;558
1;550
2;543
3;537
4;529
5;522
6;521
7;524
8;532
9;545
10;555
11;559
12;558
13;555
14;552
15;551
0;550
1;550
2;549
3;549
4;546
5;544
6;543
7;544
8;545
9;544
10;549
11;554
12;558
13;562
14;566
15;568
0;569
1;568
2;564
3;560
4;557
5;551
6;546
7;542
8;541
9;541
10;542
11;544
12;548
13;550
14;548
15;549
0;552
1;553
2;555
3;552
4;543
5;540
6;541
7;541
8;547
9;552
10;554
11;560
12;569
13;575
14;582
15;587
0;588
1;585
2;580
3;578
4;571
5;565
6;558
7;551
8;544
9;542
10;543
11;544
12;545
13;548
14;550
15;556
0;559
1;559
2;557
3;554
4;551
5;544
6;542
7;537
8;534
9;532
10;531
11;529
12;528
13;530
14;536
15;542
0;547
1;547
2;540
3;530
4;524
5;519
6;515
7;515
8;509
9;498
10;491
11;491
12;492
13;491
14;495
15;496
0;500
1;502
2;503
3;502
4;502
5;503
6;503
7;502
8;499
9;498
10;499
11;499
12;498
13;497
14;496
15;501
0;502
1;501
2;501
3;503
4;504
5;503
6;501
7;501
8;504
9;500
10;495
11;495
12;494
13;488
14;486
15;492
0;502
1;510
2;514
3;514
4;515
5;515
6;515
7;510
8;505
9;503
10;502
11;500
12;502
13;505
14;506
15;504
0;502
1;507
2;513
3;518
4;519
5;517
6;518
7;518
8;513
9;507
10;501
11;499
12;497
13;499
14;502
15;499
0;498
1;502
2;503
3;505
4;507
5;506
6;503
7;499
8;495
9;495
10;495
11;497
12;501
13;505
14;516
15;527
0;536
1;548
2;564
3;588
4;614
5;632
6;647
7;667
8;684
9;697
10;709
11;721
12;734
13;748
14;766
15;786
0;806
1;830
2;852
3;864
4;867
5;860
6;843
7;813
8;779
9;740
10;699
11;654
12;601
13;550
14;504
15;466
0;437
1;411
2;393
3;384
4;380
5;375
6;371
7;367
8;364
9;364
10;365
11;368
12;371
13;375
14;377
15;380
0;386
1;389
2;393
3;403
4;412
5;420
6;425
7;426
8;424
9;426
10;431
11;432
12;435
13;437
14;440
15;442
0;447
1;453
2;460
3;472
4;480
5;483
6;489
7;495
8;498
9;504
10;508
11;504
12;497
13;495
14;491
15;484
0;481
1;483
2;488
3;490
4;491
5;495
6;503
7;508
8;512
9;512
10;510
11;511
12;512
13;508
14;506
15;503
0;504
1;505
2;509
3;514
4;516
5;515
6;514
7;516
8;519
9;519
10;519
11;517
12;514
13;511
14;505
15;502
0;498
1;495
2;494
3;498
4;502
5;505
6;507
7;508
8;507
9;510
10;512
11;510
12;509
13;507
14;501
15;499
0;498
1;497
2;494
3;488
4;487
5;489
6;492
7;499
8;506
9;512
10;518
11;519
12;517
13;514
14;510
15;504
0;503
1;504
2;504
3;507
4;512
5;512
6;516
7;521
8;523
9;525
10;529
11;532
12;534
13;535
14;534
15;531
0;527
1;523
2;518
3;515
4;515
5;515
6;518
7;522
8;529
9;531
10;528
11;525
12;526
13;531
14;530
15;527
0;527
1;531
2;536
3;542
4;544
5;544
6;544
7;543
8;544
9;545
10;544
11;545
12;546
13;544
14;541
15;537
0;532
1;525
2;522
3;519
4;515
5;514
6;515
7;515
8;515
9;518
10;524
11;531
12;536
13;542
14;543
15;541
0;541
1;540
2;536
3;531
4;527
5;525
6;523
7;524
8;525
9;528
10;534
11;540
12;546
13;550
14;555
15;552
0;550
1;549
2;547
3;545
4;541
5;535
6;530
7;528
8;529
9;530
10;537
11;542
12;544
13;547
14;549
15;547
0;546
1;540
2;534
3;531
4;526
5;519
6;515
7;513
8;512
9;508
10;504
11;507
12;511
13;516
14;517
15;512
0;508
1;502
2;490
3;482
4;478
5;472
6;471
7;471
8;474
9;479
10;478
11;476
12;478
13;481
14;482
15;486
0;489
1;485
2;480
3;480
4;478
5;472
6;465
7;464
8;462
9;462
10;464
11;468
12;471
13;478
14;486
15;489
0;490
1;490
2;487
3;485
4;485
5;481
6;477
7;475
8;472
9;472
10;473
11;473
12;474
13;479
14;485
15;487
0;493
1;500
2;502
3;499
4;497
5;497
6;495
7;491
8;486
9;484
10;487
11;489
12;487
13;487
14;491
15;494
0;497
1;503
2;507
3;508
4;510
5;509
6;504
7;500
8;500
9;496
10;491
11;488
12;486
13;480
14;477
15;478
0;484
1;491
2;497
3;501
4;498
5;497
6;499
7;498
8;490
9;488
10;484
11;484
12;487
13;489
14;489
15;489
0;492
1;495
2;500
3;505
4;505
5;505
6;503
7;498
8;492
9;488
10;491
11;491
12;492
13;495
14;494
15;493
0;496
1;499
2;502
3;506
4;508
5;507
6;505
7;504
8;499
9;495
10;491
11;490
12;492
13;496
14;498
15;501
0;505
1;517
2;532
3;539
4;544
5;540
6;531
7;529
8;529
9;524
10;519
11;519
12;514
13;508
14;506
15;508
0;511
1;513
2;516
3;519
4;522
5;530
6;535
7;534
8;532
9;527
10;523
11;520
12;518
13;517
14;519
15;519
0;521
1;523
2;527
3;531
4;532
5;534
6;534
7;532
8;529
9;526
10;523
11;521
12;522
13;527
14;527
15;526
0;527
1;526
2;525
3;523
4;524
5;524
6;523
7;524
8;527
9;525
10;531
11;536
12;531
13;535
14;536
15;539
0;539
1;533
2;524
3;519
4;519
5;519
6;527
7;533
8;535
9;535
10;533
11;531
12;527
13;523
14;520
15;516
0;516
1;518
2;515
3;515
4;520
5;524
6;527
7;529
8;531
9;530
10;529
11;528
12;523
13;517
14;514
15;513
0;511
1;514
2;518
3;518
4;519
5;523
6;525
7;526
8;528
9;531
10;532
11;534
12;530
13;527
14;527
15;525
0;519
1;519
2;522
3;526
4;532
5;534
6;533
7;530
8;534
9;540
10;543
11;545
12;544
13;541
14;533
15;525
0;520
1;515
2;510
3;510
4;514
5;523
6;533
7;540
8;545
9;550
10;554
11;556
12;558
13;560
14;558
15;554
0;550
1;545
2;543
3;541
4;539
5;536
6;536
7;537
8;538
9;544
10;551
11;561
12;571
13;585
14;588
15;581
0;571
1;559
2;548
3;541
4;536
5;531
6;526
7;527
8;531
9;537
10;539
11;542
12;543
13;544
14;541
15;536
0;529
1;522
2;518
3;514
4;510
5;505
6;501
7;501
8;500
9;500
10;499
11;503
12;505
13;506
14;504
15;499
0;494
1;487
2;480
3;478
4;480
5;481
6;481
7;479
8;476
9;477
10;477
11;477
12;479
13;481
14;481
15;482
0;482
1;478
2;476
3;475
4;472
5;471
6;471
7;472
8;475
9;481
10;489
11;492
12;495
13;495
14;493
15;493
0;493
1;492
2;486
3;482
4;484
5;480
6;476
7;476
8;476
9;475
10;477
11;484
12;487
13;492
14;498
15;509
0;517
1;516
2;507
3;501
4;498
5;494
6;492
7;494
8;496
9;498
10;503
11;505
12;506
13;510
14;506
15;509
0;509
1;507
2;504
3;500
4;498
5;494
6;490
7;490
8;491
9;492
10;492
11;495
12;496
13;498
14;502
15;503
0;502
1;504
2;510
3;519
4;528
5;541
6;554
7;567
8;582
9;599
10;615
11;633
12;654
13;674
14;698
15;724
0;746
1;763
2;782
3;804
4;819
5;834
6;842
7;840
8;831
9;815
10;791
11;760
12;726
13;688
14;651
15;608
0;563
1;520
2;484
3;451
4;423
5;398
6;379
7;365
8;355
9;348
10;344
11;345
12;352
13;358
14;366
15;378
0;391
1;399
2;402
3;406
4;411
5;409
6;408
7;409
8;410
9;413
10;417
11;419
12;418
13;422
14;430
15;438
0;441
1;450
2;463
3;471
4;475
5;480
6;480
7;479
8;479
9;477
10;476
11;477
12;481
13;485
14;489
15;498
0;505
1;512
2;515
3;518
4;520
5;524
6;527
7;525
8;527
9;526
10;525
11;520
12;513
13;510
14;509
15;512
0;513
1;515
2;516
3;517
4;516
5;518
6;519
7;519
8;519
9;519
10;519
11;517
12;518
13;523
14;522
15;521
0;519
1;522
2;525
3;528
4;534
5;535
6;535
7;535
8;535
9;534
10;530
11;527
12;521
13;519
14;521
15;523
0;527
1;532
2;537
3;541
4;542
5;543
6;542
7;542
8;541
9;535
10;528
11;526
12;522
13;522
14;523
15;525
0;527
1;531
2;536
3;541
4;548
5;554
6;554
7;552
8;550
9;545
10;539
11;535
12;531
13;527
14;526
15;529
0;529
1;531
2;530
3;534
4;537
5;538
6;546
7;556
8;563
9;567
10;565
11;559
12;555
13;550
14;540
15;535
0;534
1;535
2;535
3;537
4;541
5;547
6;553
7;558
8;561
9;565
10;566
11;566
12;562
13;560
14;554
15;555
0;555
1;554
2;554
3;555
4;560
5;562
6;567
7;574
8;577
9;581
10;579
11;574
12;568
13;563
14;563
15;557
0;553
1;553
2;553
3;555
4;559
5;564
6;571
7;575
8;580
9;578
10;576
11;578
12;574
13;574
14;571
15;564
0;560
1;560
2;563
3;561
4;557
5;553
6;549
7;547
8;545
9;543
10;539
11;534
12;532
13;534
14;536
15;533
0;527
1;525
2;526
3;523
4;521
5;524
6;532
7;537
8;539
9;540
10;539
11;536
12;532
13;528
14;523
15;516
0;509
1;503
2;499
3;495
4;493
5;490
6;491
7;499
8;511
9;517
10;521
11;520
12;518
13;513
14;511
15;507
0;503
1;500
2;496
3;492
4;489
5;487
6;486
7;489
8;492
9;494
10;496
11;496
12;494
13;493
14;492
15;487
0;485
1;486
2;483
3;478
4;477
5;479
6;481
7;478
8;480
9;482
10;486
11;489
12;491
13;492
14;493
15;491
0;487
1;484
2;481
3;481
4;482
5;484
6;484
7;484
8;489
9;493
10;493
11;498
12;503
13;505
14;503
15;498
0;491
1;486
2;481
3;479
4;473
5;474
6;480
7;490
8;498
9;508
10;514
11;513
12;510
13;504
14;497
15;493
0;489
1;484
2;478
3;476
4;472
5;472
6;476
7;480
8;485
9;488
10;494
11;498
12;502
13;507
14;510
15;509
0;507
1;505
2;502
3;498
4;496
5;495
6;494
7;494
8;495
9;499
10;504
11;508
12;512
13;516
14;519
15;519
0;521
1;520
2;521
3;515
4;510
5;509
6;508
7;506
8;505
9;503
10;503
11;506
12;508
13;507
14;503
15;507
0;507
1;510
2;514
3;516
4;516
5;515
6;515
7;513
8;509
9;506
10;504
11;507
12;512
13;519
14;522
15;528
0;528
1;523
2;519
3;515
4;511
5;506
6;507
7;512
8;513
9;510
10;505
11;506
12;510
13;513
14;513
15;514
0;515
1;513
2;511
3;507
4;506
5;507
6;505
7;503
8;502
9;502
10;504
11;504
12;505
13;510
14;511
15;514
0;518
1;519
2;518
3;518
4;517
5;511
6;505
7;504
8;504
9;504
10;504
11;505
12;507
13;511
14;515
15;518
0;520
1;523
2;523
3;524
4;522
5;516
6;511
7;507
8;503
9;494
10;496
11;498
12;492
13;492
14;496
15;501
0;507
1;515
2;520
3;519
4;516
5;514
6;509
7;504
8;499
9;494
10;493
11;491
12;490
13;487
14;488
15;495
0;502
1;506
2;508
3;511
4;510
5;509
6;507
7;501
8;498
9;500
10;500
11;495
12;489
13;485
14;486
15;490
0;496
1;502
2;508
3;515
4;518
5;521
6;526
7;527
8;523
9;521
10;521
11;516
12;514
13;512
14;517
15;518
0;513
1;513
2;513
3;516
4;519
5;522
6;530
7;533
8;533
9;531
10;532
11;532
12;527
13;522
14;519
15;518
0;518
1;524
2;528
3;531
4;534
5;536
6;537
7;537
8;540
9;544
10;543
11;553
12;551
13;543
14;542
15;540
0;536
1;537
2;540
3;543
4;545
5;545
6;546
7;545
8;540
9;529
10;524
11;523
12;522
13;521
14;516
15;515
0;512
1;512
2;515
3;520
4;519
5;518
6;519
7;515
8;512
9;512
10;509
11;505
12;498
13;490
14;485
15;481
0;480
1;477
2;473
3;477
4;482
5;485
6;486
7;486
8;486
9;482
10;476
11;468
12;461
13;458
14;455
15;453
0;454
1;455
2;460
3;463
4;468
5;473
6;478
7;482
8;483
9;484
10;484
11;483
12;481
13;482
14;481
15;476
0;471
1;471
2;469
3;470
4;474
5;480
6;485
7;489
8;491
9;488
10;487
11;487
12;486
13;481
14;476
15;473
0;470
1;469
2;472
3;474
4;475
5;479
6;487
7;495
8;502
9;507
10;506
11;503
12;499
13;502
14;499
15;494
0;494
1;489
2;484
3;481
4;482
5;486
6;488
7;493
8;497
9;500
10;502
11;500
12;495
13;496
14;494
15;487
0;483
1;482
2;477
3;473
4;471
5;472
6;478
7;481
8;487
9;496
10;505
11;510
12;514
13;522
14;530
15;536
0;544
1;557
2;574
3;593
4;616
5;635
6;657
7;679
8;700
9;718
10;738
11;758
12;776
13;793
14;811
15;819
0;817
1;806
2;786
3;759
4;728
5;692
6;651
7;611
8;571
9;529
10;491
11;457
12;425
13;397
14;378
15;364
0;351
1;339
2;332
3;326
4;323
5;324
6;328
7;336
8;346
9;355
10;362
11;369
12;376
13;379
14;382
15;385
0;382
1;377
2;376
3;375
4;376
5;378
6;381
7;387
8;395
9;406
10;413
11;418
12;426
13;434
14;437
15;440
0;441
1;442
2;446
3;446
4;445
5;447
6;450
7;451
8;453
9;457
10;461
11;464
12;468
13;472
14;476
15;480
0;480
1;479
2;476
3;473
4;472
5;468
6;465
7;463
8;461
9;463
10;469
11;473
12;476
13;480
14;481
15;483
0;483
1;482
2;478
3;473
4;469
5;464
6;461
7;461
8;467
9;469
10;474
11;482
12;485
13;487
14;491
15;496
0;496
1;495
2;498
3;495
4;487
5;482
6;481
7;480
8;481
9;485
10;486
11;485
12;487
13;493
14;498
15;504
0;505
1;506
2;504
3;499
4;494
5;491
6;488
7;489
8;494
9;497
10;499
11;502
12;506
13;511
14;511
15;510
0;510
1;510
2;507
3;510
4;512
5;511
6;506
7;502
8;499
9;495
10;495
11;498
12;499
13;499
14;501
15;504
0;509
1;511
2;510
3;511
4;513
5;510
6;506
7;501
8;499
9;498
10;499
11;500
12;500
13;504
14;510
15;515
0;520
1;522
2;522
3;524
4;523
5;519
6;516
7;513
8;511
9;511
10;511
11;513
12;515
13;517
14;522
15;526
0;530
1;534
2;542
3;544
4;543
5;542
6;537
7;530
8;527
9;523
10;519
11;516
12;518
13;519
14;523
15;529
0;534
1;540
2;546
3;550
4;549
5;547
6;544
7;541
8;536
9;535
10;529
11;523
12;519
13;519
14;523
15;524
0;523
1;521
2;521
3;522
4;528
5;535
6;529
7;524
8;521
9;516
10;509
11;504
12;502
13;501
14;508
15;512
0;514
1;511
2;514
3;515
4;514
5;510
6;503
7;499
8;496
9;494
10;487
11;481
12;476
13;473
14;471
15;469
0;473
1;474
2;474
3;478
4;483
5;485
6;483
7;481
8;481
9;477
10;468
11;464
12;460
13;455
14;455
15;457
0;457
1;458
2;464
3;470
4;472
5;476
6;480
7;483
8;484
9;482
10;480
11;475
12;468
13;459
14;452
15;449
0;446
1;445
2;449
3;452
4;456
5;460
6;464
7;466
8;465
9;465
10;465
11;461
12;456
13;454
14;449
15;446
0;446
1;449
2;452
3;455
4;460
5;465
6;468
7;471
8;473
9;472
10;469
11;462
12;459
13;457
14;450
15;443
0;443
1;444
2;445
3;452
4;459
5;459
6;460
7;468
8;480
9;483
10;479
11;476
12;471
13;467
14;462
15;458
0;459
1;457
2;454
3;454
4;459
5;467
6;473
7;482
8;491
9;495
10;499
11;496
12;491
13;487
14;483
15;479
0;475
1;472
2;472
3;472
4;474
5;478
6;481
7;485
8;489
9;495
10;496
11;496
12;496
13;491
14;485
15;480
0;477
1;476
2;477
3;477
4;478
5;480
6;487
7;493
8;499
9;504
10;506
11;506
12;505
13;501
14;497
15;492
0;490
1;488
2;488
3;490
4;489
5;489
6;491
7;495
8;501
9;506
10;508
11;510
12;512
13;510
14;502
15;495
0;490
1;486
2;482
3;480
4;480
5;479
6;480
7;482
8;486
9;494
10;500
11;500
12;497
13;494
14;491
15;484
0;480
1;480
2;484
3;486
4;490
5;492
6;489
7;488
8;495
9;499
10;504
11;506
12;507
13;506
14;504
15;504
0;504
1;497
2;491
3;486
4;481
5;478
6;480
7;480
8;479
9;485
10;491
11;496
12;499
13;499
14;498
15;495
0;492
1;489
2;488
3;485
4;482
5;481
6;481
7;480
8;481
9;486
10;491
11;494
12;498
13;503
14;502
15;501
0;502
1;498
2;493
3;490
4;487
5;486
6;487
7;489
8;491
9;496
10;500
11;503
12;501
13;500
14;500
15;500
0;502
1;502
2;498
3;493
4;491
5;491
6;487
7;485
8;482
9;483
10;488
11;495
12;501
13;506
14;509
15;510
0;515
1;514
2;512
3;510
4;511
5;513
6;511
7;510
8;508
9;504
10;501
11;503
12;505
13;507
14;509
15;512
0;511
1;511
2;510
3;509
4;507
5;504
6;503
7;500
8;496
9;496
10;496
11;503
12;513
13;521
14;528
15;535
0;537
1;540
2;542
3;543
4;535
5;527
6;523
7;520
8;519
9;519
10;520
11;521
12;523
13;526
14;527
15;531
0;534
1;535
2;534
3;531
4;526
5;518
6;510
7;504
8;504
9;504
10;502
11;500
12;500
13;504
14;504
15;498
0;499
1;504
2;501
3;497
4;495
5;487
6;479
7;472
8;468
9;468
10;467
11;469
12;469
13;469
14;473
15;478
0;481
1;482
2;479
3;475
4;472
5;471
6;468
7;466
8;463
9;460
10;458
11;457
12;459
13;463
14;466
15;472
0;472
1;475
2;479
3;481
4;481
5;480
6;477
7;471
8;468
9;465
10;464
11;464
12;465
13;461
14;460
15;466
0;471
1;474
2;478
3;483
4;485
5;486
6;487
7;478
8;468
9;465
10;463
11;462
12;463
13;463
14;462
15;460
0;462
1;471
2;475
3;478
4;484
5;488
6;490
7;489
8;489
9;486
10;484
11;483
12;485
13;486
14;484
15;483
0;486
1;489
2;493
3;497
4;499
5;496
6;491
7;487
8;483
9;479
10;475
11;472
12;470
13;471
14;476
15;484
0;495
1;505
2;519
3;535
4;551
5;566
6;578
7;592
8;610
9;628
10;642
11;659
12;675
13;691
14;705
15;722
0;741
1;760
2;785
3;811
4;828
5;833
6;826
7;809
8;780
9;746
10;707
11;662
12;617
13;570
14;525
15;483
0;444
1;411
2;390
3;374
4;365
5;359
6;356
7;350
8;344
9;344
10;341
11;339
12;338
13;341
14;346
15;349
0;354
1;360
2;364
3;372
4;380
5;391
6;396
7;402
8;407
9;411
10;414
11;415
12;418
13;422
14;425
15;429
0;433
1;438
2;443
3;451
4;462
5;471
6;478
7;485
8;487
9;491
10;492
11;493
12;490
13;487
14;487
15;485
0;482
1;483
2;484
3;486
4;489
5;494
6;499
7;503
8;509
9;512
10;515
11;514
12;509
13;504
14;501
15;495
0;491
1;489
2;493
3;496
4;498
5;503
6;505
7;507
8;508
9;510
10;512
11;512
12;507
13;503
14;501
15;504
0;504
1;499
2;497
3;498
4;504
5;510
6;513
7;516
8;519
9;522
10;524
11;526
12;524
13;519
14;514
15;507
0;501
1;496
2;495
3;499
4;503
5;508
6;513
7;520
8;523
9;523
10;523
11;525
12;523
13;522
14;520
15;516
0;512
1;511
2;512
3;513
4;515
5;518
6;520
7;523
8;528
9;531
10;531
11;532
12;534
13;533
14;531
15;529
0;525
1;522
2;521
3;519
4;520
5;521
6;523
7;529
8;533
9;536
10;537
11;540
12;543
13;543
14;540
15;541
0;539
1;536
2;533
3;528
4;525
5;526
6;530
7;532
8;537
9;545
10;551
11;556
12;560
13;561
14;558
15;555
0;552
1;548
2;542
3;539
4;537
5;533
6;536
7;541
8;546
9;550
10;547
11;551
12;561
13;569
14;570
15;568
0;567
1;560
2;555
3;551
4;546
5;544
6;546
7;543
8;540
9;539
10;541
11;544
12;549
13;553
14;555
15;553
0;553
1;555
2;552
3;548
4;543
5;539
6;534
7;529
8;524
9;520
10;523
11;530
12;533
13;534
14;534
15;534
0;533
1;530
2;527
3;522
4;514
5;510
6;507
7;504
8;504
9;505
10;507
11;510
12;513
13;515
14;518
15;517
0;515
1;514
2;513
3;510
4;507
5;503
6;500
7;496
8;494
9;494
10;493
11;491
12;495
13;498
14;499
15;499
0;501
1;502
2;501
3;500
4;496
5;495
6;489
7;480
8;476
9;475
10;474
11;474
12;476
13;479
14;482
15;485
0;489
1;490
2;491
3;489
4;480
5;470
6;463
7;461
8;457
9;455
10;456
11;458
12;464
13;467
14;469
15;469
0;475
1;479
2;480
3;482
4;482
5;480
6;479
7;475
8;472
9;467
10;463
11;465
12;468
13;471
14;474
15;476
0;480
1;483
2;485
3;483
4;484
5;482
6;478
7;473
8;467
9;463
10;463
11;465
12;467
13;470
14;475
15;478
0;483
1;487
2;491
3;492
4;493
5;492
6;489
7;486
8;485
9;483
10;480
11;480
12;481
13;481
14;482
15;486
0;489
1;496
2;502
3;507
4;508
5;508
6;507
7;503
8;499
9;495
10;492
11;492
12;494
13;496
14;495
15;493
0;496
1;498
2;500
3;504
4;508
5;510
6;505
7;501
8;498
9;496
10;493
11;491
12;490
13;488
14;487
15;485
0;486
1;493
2;496
3;500
4;504
5;506
6;508
7;508
8;503
9;498
10;496
11;493
12;490
13;488
14;485
15;482
0;483
1;492
2;502
3;505
4;508
5;510
6;508
7;508
8;508
9;504
10;496
11;499
12;498
13;495
14;495
15;497
0;499
1;504
2;505
3;507
4;510
5;514
6;519
7;521
8;522
9;519
10;514
11;509
12;508
13;504
14;499
15;500
0;500
1;502
2;505
3;511
4;515
5;518
6;522
7;524
8;523
9;521
10;518
11;515
12;511
13;508
14;506
15;503
0;502
1;502
2;505
3;507
4;510
5;515
6;519
7;520
8;518
9;519
10;518
11;511
12;504
13;504
14;503
15;500
0;499
1;499
2;496
3;494
4;495
5;496
6;501
7;507
8;509
9;509
10;511
11;511
12;510
13;508
14;503
15;499
0;498
1;497
2;497
3;496
4;504
5;511
6;514
7;518
8;522
9;523
10;523
11;519
12;513
13;509
14;507
15;503
0;498
1;491
2;489
3;493
4;500
5;509
6;518
7;525
8;529
9;536
10;532
11;527
12;523
13;523
14;525
15;527
0;527
1;528
2;530
3;535
4;539
5;543
6;550
7;554
8;559
9;562
10;564
11;561
12;557
13;555
14;550
15;547
0;543
1;541
2;541
3;541
4;542
5;542
6;544
7;546
8;550
9;554
10;555
11;551
12;548
13;548
14;545
15;541
0;537
1;531
2;526
3;522
4;519
5;517
6;515
7;516
8;517
9;516
10;519
11;521
12;518
13;517
14;517
15;515
0;513
1;509
2;502
3;497
4;491
5;489
6;489
7;492
8;496
9;502
10;508
11;512
12;513
13;513
14;511
15;508
0;502
1;493
2;488
3;486
4;486
5;487
6;486
7;487
8;489
9;492
10;495
11;498
12;499
13;497
14;494
15;492
0;492
1;491
2;488
3;486
4;487
5;490
6;494
7;492
8;492
9;495
10;501
11;507
12;512
13;515
14;511
15;505
0;501
1;500
2;497
3;493
4;492
5;487
6;487
7;489
8;492
9;496
10;502
11;504
12;503
13;504
14;504
15;502
0;505
1;505
2;500
3;497
4;495
5;491
6;488
7;488
8;485
9;481
10;483
11;487
12;488
13;491
14;497
15;504
0;508
1;510
2;510
3;511
4;514
5;520
6;527
7;537
8;550
9;562
10;575
11;592
12;610
13;631
14;655
15;676
0;693
1;710
2;725
3;733
4;746
5;767
6;787
7;807
8;827
9;836
10;831
11;814
12;788
13;758
14;722
15;683
0;644
1;607
2;569
3;525
4;482
5;445
6;417
7;396
8;378
9;369
10;362
11;356
12;352
13;351
14;352
15;356
0;363
1;368
2;376
3;379
4;382
5;383
6;383
7;383
8;385
9;388
10;389
11;393
12;395
13;408
14;427
15;444
0;456
1;467
2;475
3;480
4;482
5;482
6;481
7;483
8;485
9;487
10;488
11;486
12;485
13;488
14;495
15;501
0;509
1;515
2;519
3;519
4;520
5;521
6;518
7;513
8;507
9;504
10;503
11;505
12;511
13;517
14;522
15;523
0;524
1;527
2;530
3;530
4;530
5;528
6;525
7;521
8;519
9;515
10;511
11;512
12;514
13;513
14;518
15;521
0;527
1;533
2;537
3;542
4;543
5;543
6;540
7;536
8;531
9;529
10;527
11;525
12;524
13;526
14;527
15;527
0;528
1;529
2;531
3;536
4;538
5;539
6;540
7;539
8;533
9;528
10;524
11;519
12;517
13;518
14;519
15;522
0;524
1;527
2;528
3;532
4;537
5;540
6;541
7;543
8;546
9;543
10;540
11;536
12;533
13;531
14;531
15;531
0;529
1;533
2;538
3;542
4;548
5;551
6;551
7;551
8;550
9;545
10;538
11;533
12;526
13;524
14;526
15;529
0;531
1;535
2;542
3;546
4;548
5;551
6;551
7;552
8;551
9;546
10;542
11;538
12;537
13;535
14;534
15;533
0;535
1;536
2;538
3;541
4;546
5;551
6;553
7;559
8;565
9;569
10;570
11;567
12;563
13;562
14;556
15;552
0;551
1;550
2;550
3;553
4;558
5;560
6;563
7;563
8;564
9;565
10;565
11;561
12;557
13;551
14;545
15;541
0;538
1;536
2;534
3;534
4;539
5;542
6;544
7;551
8;556
9;556
10;556
11;554
12;552
13;548
14;541
15;532
0;524
1;517
2;512
3;513
4;513
5;517
6;521
7;525
8;528
9;530
10;531
11;533
12;532
13;526
14;519
15;513
0;510
1;505
2;502
3;504
4;501
5;503
6;506
7;509
8;515
9;517
10;516
11;512
12;507
13;502
14;498
15;492
0;486
1;477
2;470
3;473
4;474
5;477
6;484
7;494
8;499
9;501
10;504
11;506
12;504
13;501
14;495
15;487
0;481
1;476
2;471
3;472
4;471
5;472
6;475
7;480
8;481
9;484
10;487
11;487
12;486
13;485
14;483
15;479
0;477
1;474
2;470
3;468
4;468
5;469
6;471
7;477
8;482
9;487
10;494
11;495
12;492
13;492
14;491
15;489
0;486
1;483
2;479
3;477
4;476
5;471
6;467
7;465
8;470
9;476
10;481
11;483
12;490
13;496
14;498
15;499
0;495
1;489
2;483
3;477
4;474
5;475
6;474
7;473
8;477
9;482
10;486
11;493
12;501
13;503
14;500
15;496
0;492
1;490
2;486
3;481
4;478
5;476
6;476
7;472
8;472
9;473
10;486
11;495
12;499
13;504
14;504
15;502
0;499
1;494
2;490
3;489
4;483
5;477
6;476
7;476
8;478
9;482
10;487
11;495
12;501
13;503
14;503
15;500
0;499
1;497
2;493
3;489
4;482
5;473
6;468
7;467
8;470
9;477
10;484
11;492
12;496
13;499
14;500
15;499
0;495
1;489
2;485
3;486
4;495
5;500
6;495
7;493
8;494
9;493
10;491
11;492
12;496
13;498
14;503
15;505
0;508
1;509
2;509
3;508
4;498
5;495
6;493
7;487
8;484
9;483
10;482
11;482
12;486
13;489
14;492
15;495
0;495
1;494
2;493
3;492
4;489
5;485
6;485
7;484
8;480
9;481
10;483
11;486
12;491
13;497
14;502
15;504
0;509
1;510
2;509
3;512
4;512
5;511
6;509
7;506
8;503
9;499
10;496
11;490
12;487
13;488
14;492
15;497
0;505
1;512
2;515
3;513
4;503
5;496
6;502
7;506
8;503
9;497
10;493
11;489
12;488
13;493
14;500
15;507
0;512
1;519
2;528
3;534
4;536
5;536
6;532
7;525
8;518
9;512
10;508
11;506
12;505
13;507
14;508
15;509
0;513
1;517
2;520
3;521
4;522
5;522
6;521
7;518
8;513
9;512
10;509
11;504
12;501
13;500
14;498
15;501
0;504
1;503
2;506
3;509
4;511
5;513
6;512
7;509
8;503
9;496
10;487
11;480
12;475
13;472
14;470
15;469
0;473
1;476
2;478
3;483
4;485
5;486
6;481
7;480
8;479
9;473
10;472
11;465
12;455
13;452
14;454
15;455
0;463
1;467
2;472
3;478
4;481
5;486
6;486
7;485
8;484
9;480
10;477
11;477
12;477
13;479
14;484
15;488
0;487
1;487
2;489
3;492
4;495
5;497
6;496
7;496
8;496
9;494
10;489
11;486
12;483
13;481
14;482
15;485
0;487
1;489
2;493
3;498
4;503
5;508
6;509
7;509
8;508
9;507
10;503
11;498
12;497
13;494
14;492
15;492
0;491
1;490
2;489
3;490
4;493
5;496
6;497
7;498
8;498
9;494
10;488
11;482
12;476
13;473
14;471
15;472
0;477
1;481
2;487
3;497
4;506
5;518
6;533
7;550
8;566
9;583
10;599
11;612
12;628
13;643
14;656
15;668
0;681
1;696
2;713
3;734
4;759
5;788
6;815
7;834
8;840
9;836
10;818
11;790
12;755
13;714
14;669
15;622
0;576
1;534
2;492
3;453
4;425
5;406
6;392
7;383
8;377
9;370
10;366
11;364
12;362
13;358
14;356
15;357
0;362
1;365
2;370
3;376
4;381
5;385
6;391
7;398
8;404
9;409
10;410
11;413
12;416
13;417
14;420
15;424
0;429
1;432
2;435
3;439
4;443
5;451
6;460
7;469
8;477
9;485
10;492
11;494
12;496
13;496
14;494
15;491
0;487
1;484
2;483
3;487
4;488
5;487
6;487
7;492
8;497
9;502
10;505
11;507
12;506
13;508
14;505
15;499
0;495
1;496
2;496
3;495
4;493
5;492
6;494
7;497
8;498
9;502
10;505
11;509
12;512
13;516
14;515
15;510
0;502
1;494
2;486
3;483
4;482
5;483
6;488
7;496
8;503
9;509
10;515
11;521
12;524
13;527
14;529
15;530
0;526
1;520
2;515
3;512
4;508
5;508
6;508
7;509
8;512
9;514
10;518
11;523
12;526
13;526
14;526
15;525
0;524
1;521
2;518
3;514
4;508
5;509
6;511
7;511
8;514
9;519
10;524
11;527
12;535
13;542
14;546
15;547
0;547
1;543
2;539
3;537
4;533
5;527
6;527
7;529
8;529
9;530
10;537
11;541
12;546
13;551
14;555
15;553
0;551
1;550
2;548
3;545
4;542
5;537
6;534
7;535
8;535
9;535
10;539
11;544
12;547
13;553
14;559
15;561
0;564
1;566
2;563
3;556
4;546
5;543
6;541
7;539
8;540
9;542
10;543
11;547
12;553
13;557
14;561
15;561
0;559
1;558
2;554
3;550
4;542
5;537
6;535
7;535
8;535
9;536
10;535
11;537
12;539
13;539
14;542
15;544
0;543
1;542
2;537
3;532
4;528
5;526
6;524
7;519
8;516
9;515
10;515
11;516
12;519
13;523
14;527
15;529
0;534
1;537
2;537
3;537
4;534
5;528
6;523
7;520
8;518
9;516
10;515
11;517
12;518
13;519
14;523
15;528
0;533
1;537
2;535
3;527
4;524
5;518
6;508
7;502
8;495
9;489
10;486
11;485
12;484
13;485
14;490
15;497
0;498
1;500
2;501
3;499
4;498
5;496
6;491
7;487
8;481
9;477
10;473
11;471
12;469
13;467
14;470
15;473
0;478
1;481
2;482
3;482
4;481
5;479
6;476
7;473
8;469
9;467
10;465
11;465
12;466
13;467
14;472
15;479
0;483
1;486
2;486
3;487
4;486
5;487
6;488
7;486
8;481
9;478
10;473
11;467
12;465
13;465
14;467
15;470
0;477
1;483
2;488
3;491
4;494
5;496
6;498
7;497
8;493
9;487
10;483
11;477
12;473
13;473
14;474
15;474
0;479
1;487
2;493
3;500
4;505
5;509
6;509
7;505
8;502
9;495
10;491
11;489
12;486
13;483
14;484
15;485
0;486
1;489
2;492
3;496
4;502
5;509
6;512
7;509
8;507
9;504
10;503
11;501
12;496
13;492
14;492
15;492
0;495
1;499
2;506
3;505
4;505
5;507
6;508
7;512
8;517
9;519
10;516
11;515
12;512
13;508
14;506
15;506
0;504
1;504
2;507
3;512
4;516
5;520
6;520
7;519
8;516
9;514
10;510
11;504
12;499
13;497
14;493
15;492
0;494
1;496
2;497
3;499
4;503
5;508
6;515
7;518
8;519
9;520
10;519
11;513
12;510
13;507
14;503
15;503
0;502
1;501
2;504
3;504
4;507
5;509
6;515
7;520
8;521
9;520
10;521
11;521
12;520
13;516
14;511
15;505
0;501
1;499
2;499
3;504
4;512
5;520
6;527
7;532
8;535
9;537
10;537
11;536
12;534
13;531
14;527
15;524
0;519
1;518
2;520
3;520
4;521
5;522
6;527
7;526
8;529
9;532
10;534
11;538
12;538
13;536
14;534
15;531
0;525
1;520
2;514
3;510
4;510
5;513
6;518
7;525
8;530
9;536
10;537
11;537
12;539
13;539
14;536
15;532
0;529
1;527
2;527
3;528
4;533
5;535
6;540
7;545
8;550
9;555
10;559
11;560
12;556
13;554
14;548
15;544
0;537
1;529
2;521
3;516
4;513
5;514
6;513
7;515
8;521
9;526
10;536
11;541
12;540
13;536
14;532
15;524
0;516
1;508
2;503
3;496
4;492
5;487
6;485
7;486
8;489
9;492
10;496
11;501
12;503
13;501
14;499
15;497
0;494
1;490
2;483
3;476
4;473
5;474
6;474
7;472
8;475
9;480
10;487
11;493
12;495
13;494
14;492
15;485
0;477
1;467
2;459
3;460
4;466
5;472
6;477
7;477
8;478
9;484
10;488
11;493
12;496
13;497
14;496
15;496
0;495
1;490
2;483
3;477
4;474
5;469
6;466
7;468
8;468
9;471
10;474
11;476
12;480
13;489
14;494
15;495
0;490
1;485
2;478
3;471
4;468
5;467
6;467
7;468
8;468
9;469
10;472
11;478
12;484
13;488
14;493
15;495
0;495
1;495
2;496
3;492
4;485
5;481
6;478
7;481
8;485
9;480
10;476
11;477
12;481
13;487
14;491
15;497
0;503
1;510
2;516
3;521
4;528
5;539
6;547
7;556
8;573
9;595
10;615
11;633
12;655
13;677
14;696
15;716
0;736
1;762
2;787
3;810
4;828
5;839
6;840
7;831
8;815
9;790
10;755
11;719
12;681
13;643
14;602
15;559
0;521
1;485
2;455
3;432
4;414
5;400
6;385
7;374
8;366
9;359
10;351
11;349
12;350
13;358
14;369
15;379
0;382
1;386
2;396
3;400
4;395
5;391
6;392
7;391
8;390
9;393
10;398
11;405
12;411
13;419
14;427
15;432
0;440
1;447
2;454
3;461
4;465
5;474
6;478
7;480
8;479
9;477
10;475
11;475
12;474
13;477
14;482
15;488
0;497
1;504
2;512
3;515
4;515
5;514
6;512
7;508
8;504
9;501
10;497
11;495
12;496
13;498
14;500
15;504
0;508
1;514
2;519
3;524
4;526
5;528
6;530
7;528
8;524
9;518
10;511
11;508
12;508
13;506
14;505
15;506
0;510
1;514
2;519
3;523
4;523
5;522
6;519
7;513
8;507
9;503
10;498
11;494
12;489
13;488
14;490
15;491
0;496
1;501
2;508
3;515
4;519
5;523
6;525
7;525
8;521
9;522
10;522
11;518
12;514
13;512
14;510
15;509
0;510
1;513
2;517
3;521
4;525
5;530
6;532
7;532
8;531
9;526
10;522
11;520
12;517
13;516
14;516
15;518
0;519
1;521
2;528
3;534
4;540
5;544
6;547
7;548
8;547
9;546
10;542
11;532
12;525
13;520
14;519
15;518
0;519
1;522
2;527
3;528
4;528
5;533
6;538
7;540
8;540
9;538
10;536
11;532
12;530
13;526
14;525
15;525
0;527
1;534
2;536
3;539
4;541
5;543
6;542
7;538
8;537
9;542
10;542
11;536
12;529
13;525
14;524
15;524
0;525
1;525
2;526
3;529
4;532
5;538
6;542
7;547
8;548
9;546
10;544
11;544
12;539
13;532
14;526
15;521
0;517
1;516
2;515
3;515
4;518
5;524
6;528
7;531
8;532
9;529
10;528
11;527
12;526
13;522
14;516
15;511
0;510
1;508
2;505
3;504
4;504
5;506
6;508
7;508
8;511
9;514
10;519
11;521
12;519
13;512
14;504
15;498
0;495
1;493
2;493
3;494
4;492
5;492
6;492
7;492
8;496
9;498
10;498
11;493
12;494
13;490
14;483
15;478
0;475
1;473
2;471
3;472
4;472
5;474
6;478
7;481
8;483
9;485
10;487
11;488
12;488
13;487
14;480
15;470
0;464
1;463
2;460
3;460
4;459
5;458
6;460
7;467
8;476
9;482
10;484
11;485
12;487
13;486
14;482
15;478
0;470
1;467
2;462
3;457
4;456
5;458
6;464
7;469
8;475
9;479
10;482
11;487
12;487
13;490
14;492
15;488
0;480
1;474
2;471
3;466
4;463
5;462
6;463
7;466
8;471
9;472
10;475
11;483
12;489
13;493
14;492
15;491
0;488
1;485
2;485
3;487
4;487
5;487
6;487
7;486
8;484
9;485
10;487
11;492
12;496
13;496
14;495
15;494
0;492
1;485
2;477
3;472
4;466
5;465
6;467
7;472
8;476
9;478
10;483
11;485
12;487
13;492
14;499
15;504
0;507
1;508
2;506
3;504
4;503
5;501
6;497
7;496
8;496
9;496
10;497
11;502
12;503
13;502
14;505
15;506
0;505
1;502
2;499
3;496
4;493
5;489
6;487
7;487
8;487
9;491
10;492
11;494
12;496
13;501
14;509
15;514
0;517
1;518
2;517
3;511
4;513
5;516
6;511
7;506
8;502
9;500
10;499
11;499
12;502
13;504
14;506
15;507
0;510
1;511
2;510
3;510
4;508
5;505
6;500
7;497
8;494
9;494
10;495
11;496
12;501
13;504
14;508
15;513
0;518
1;521
2;523
3;523
4;519
5;515
6;513
7;510
8;508
9;512
10;513
11;515
12;518
13;521
14;524
15;524
0;527
1;528
2;528
3;533
4;536
5;536
6;530
7;525
8;521
9;521
10;519
11;516
12;516
13;519
14;521
15;528
0;536
1;543
2;544
3;543
4;542
5;541
6;541
7;538
8;537
9;536
10;535
11;537
12;540
13;543
14;546
15;550
0;553
1;556
2;557
3;555
4;552
5;550
6;546
7;539
8;533
9;529
10;526
11;523
12;521
13;522
14;524
15;527
0;529
1;532
2;536
3;539
4;539
5;537
6;531
7;524
8;520
9;515
10;510
11;505
12;504
13;501
14;497
15;495
0;496
1;499
2;501
3;503
4;504
5;500
6;498
7;496
8;492
9;487
10;483
11;481
12;480
13;480
14;481
15;483
0;488
1;495
2;498
3;502
4;504
5;504
6;503
7;500
8;492
9;484
10;480
11;477
12;474
13;474
14;474
15;477
0;485
1;493
2;499
3;500
4;499
5;498
6;496
7;497
8;497
9;493
10;490
11;487
12;479
13;474
14;473
15;474
0;476
1;482
2;489
3;495
4;498
5;504
6;505
7;502
8;498
9;496
10;490
11;487
12;484
13;485
14;482
15;480
0;478
1;479
2;483
3;489
4;495
5;502
6;507
7;509
8;512
9;508
10;499
11;490
12;483
13;478
14;472
15;467
0;462
1;460
2;460
3;463
4;468
5;474
6;480
7;487
8;492
9;498
10;505
11;512
12;519
13;529
14;540
15;556
0;573
1;591
2;610
3;632
4;658
5;681
6;705
7;726
8;746
9;765
10;786
11;808
12;826
13;836
14;835
15;826
0;805
1;778
2;748
3;712
4;674
5;633
6;595
7;560
8;523
9;492
10;465
11;443
12;418
13;397
14;381
15;369
0;359
1;353
2;351
3;352
4;355
5;362
6;370
7;384
8;400
9;411
10;414
11;417
12;416
13;415
14;415
15;414
0;411
1;408
2;409
3;413
4;418
5;426
6;437
7;446
8;456
9;464
10;468
11;473
12;479
13;482
14;479
15;474
0;472
1;469
2;466
3;468
4;472
5;478
6;486
7;494
8;500
9;506
10;508
11;511
12;512
13;510
14;508
15;505
0;503
1;501
2;497
3;496
4;496
5;495
6;498
7;504
8;509
9;512
10;514
11;518
12;520
13;521
14;522
15;521
0;517
1;520
2;519
3;513
4;513
5;514
6;513
7;517
8;527
9;531
10;530
11;530
12;528
13;527
14;527
15;521
0;514
1;507
2;502
3;503
4;505
5;505
6;508
7;514
8;524
9;529
10;532
11;537
12;541
13;542
14;541
15;540
0;535
1;528
2;522
3;520
4;518
5;519
6;524
7;529
8;535
9;541
10;547
11;551
12;556
13;559
14;559
15;558
0;553
1;549
2;550
3;553
4;550
5;544
6;537
7;530
8;527
9;532
10;539
11;544
12;551
13;551
14;551
15;551
0;548
1;544
2;537
3;532
4;528
5;524
6;525
7;530
8;534
9;539
10;547
11;552
12;551
13;548
14;551
15;551
0;548
1;548
2;552
3;552
4;549
5;547
6;544
7;543
8;542
9;541
10;544
11;550
12;554
13;556
14;561
15;562
0;561
1;560
2;559
3;556
4;551
5;545
6;539
7;537
8;540
9;543
10;547
11;547
12;550
13;555
14;559
15;562
0;564
1;567
2;564
3;561
4;555
5;551
6;546
7;539
8;535
9;536
10;539
11;541
12;543
13;544
14;544
15;545
0;549
1;547
2;546
3;543
4;538
5;532
6;526
7;521
8;514
9;511
10;510
11;508
12;511
13;516
14;521
15;527
0;528
1;529
2;530
3;526
4;522
5;515
6;511
7;508
8;504
9;497
10;490
11;491
12;491
13;493
14;497
15;500
0;509
1;513
2;513
3;512
4;511
5;506
6;500
7;497
8;495
9;491
10;486
11;483
12;482
13;482
14;486
15;491
0;496
1;501
2;504
3;508
4;511
5;507
6;503
7;497
8;489
9;481
10;475
11;472
12;472
13;474
14;478
15;481
0;484
1;486
2;485
3;483
4;480
5;478
6;480
7;489
8;494
9;493
10;489
11;485
12;482
13;479
14;477
15;478
0;481
1;486
2;493
3;497
4;498
5;495
6;492
7;492
8;488
9;483
10;477
11;474
12;473
13;476
14;478
15;482
0;487
1;492
2;497
3;501
4;504
5;505
6;505
7;504
8;501
9;499
10;496
11;492
12;488
13;487
14;488
15;489
0;494
1;500
2;506
3;512
4;519
5;527
6;534
7;537
8;531
9;522
10;515
11;507
12;500
13;495
14;492
15;489
0;488
1;491
2;495
3;499
4;502
5;505
6;508
7;512
8;516
9;515
10;509
11;504
12;505
13;506
14;507
15;508
0;511
1;513
2;516
3;518
4;517
5;519
6;520
7;519
8;522
9;520
10;517
11;514
12;512
13;507
14;504
15;504
0;508
1;510
2;512
3;515
4;519
5;524
6;528
7;530
8;529
9;527
10;523
11;518
12;515
13;512
14;510
15;508
0;511
1;512
2;514
3;516
4;520
5;525
6;529
7;533
8;535
9;536
10;536
11;533
12;528
13;526
14;525
15;525
0;526
1;527
2;528
3;530
4;533
5;539
6;541
7;543
8;547
9;545
10;543
11;542
12;540
13;535
14;530
15;525
0;526
1;529
2;531
3;532
4;535
5;540
6;546
7;549
8;550
9;550
10;549
11;548
12;544
13;540
14;535
15;531
0;530
1;527
2;529
3;533
4;540
5;548
6;556
7;563
8;571
9;578
10;577
11;573
12;568
13;561
14;553
15;546
0;542
1;540
2;538
3;539
4;540
5;540
6;542
7;543
8;544
9;547
10;545
11;543
12;543
13;543
14;540
15;535
0;529
1;522
2;518
3;517
4;517
5;516
6;518
7;521
8;524
9;528
10;529
11;527
12;524
13;520
14;513
15;503
0;497
1;494
2;492
3;490
4;489
5;490
6;491
7;496
8;501
9;503
10;506
11;510
12;512
13;510
14;507
15;505
0;504
1;501
2;498
3;498
4;498
5;498
6;490
7;490
8;492
9;496
10;503
11;507
12;509
13;508
14;511
15;511
0;507
1;501
2;496
3;492
4;491
5;487
6;484
7;483
8;486
9;493
10;503
11;511
12;516
13;523
14;526
15;526
0;524
1;519
2;513
3;508
4;503
5;500
6;498
7;500
8;501
9;505
10;508
11;509
12;514
13;516
14;517
15;517
0;516
1;512
2;508
3;505
4;505
5;504
6;498
7;493
8;490
9;491
10;495
11;497
12;496
13;497
14;496
15;495
0;495
1;496
2;496
3;499
4;501
5;501
6;504
7;510
8;520
9;529
10;545
11;568
12;593
13;619
14;644
15;668
0;690
1;710
2;727
3;741
4;758
5;775
6;792
7;810
8;829
9;837
10;835
11;823
12;802
13;782
14;758
15;724
0;684
1;652
2;615
3;575
4;530
5;490
6;456
7;430
8;412
9;397
10;390
11;386
12;385
13;386
14;386
15;390
0;395
1;398
2;402
3;412
4;414
5;411
6;412
7;412
8;412
9;414
10;418
11;420
12;419
13;423
14;427
15;433
0;441
1;449
2;459
3;468
4;475
5;476
6;478
7;481
8;480
9;476
10;475
11;476
12;479
13;489
14;495
15;498
0;501
1;504
2;504
3;508
4;508
5;504
6;500
7;500
8;496
9;494
10;495
11;497
12;500
13;503
14;507
15;510
0;512
1;516
2;517
3;517
4;520
5;521
6;516
7;508
8;505
9;499
10;493
11;490
12;490
13;488
14;493
15;499
0;504
1;510
2;519
3;523
4;523
5;525
6;524
7;517
8;511
9;507
10;505
11;503
12;504
13;504
14;504
15;502
0;505
1;511
2;519
3;528
4;535
5;533
6;531
7;530
8;529
9;524
10;518
11;513
12;512
13;512
14;513
15;517
0;521
1;524
2;527
3;531
4;533
5;531
6;528
7;527
8;523
9;518
10;515
11;513
12;511
13;514
14;516
15;515
0;516
1;519
2;521
3;525
4;526
5;526
6;524
7;523
8;521
9;519
10;516
11;513
12;511
13;510
14;513
15;516
0;518
1;522
2;525
3;528
4;532
5;534
6;535
7;536
8;535
9;532
10;527
11;522
12;518
13;515
14;514
15;515
0;516
1;518
2;523
3;528
4;531
5;534
6;535
7;536
8;537
9;536
10;536
11;534
12;534
13;535
14;536
15;536
0;535
1;533
2;536
3;542
4;547
5;550
6;552
7;552
8;551
9;546
10;540
11;534
12;529
13;524
14;524
15;523
0;518
1;516
2;514
3;517
4;521
5;527
6;533
7;538
8;540
9;540
10;537
11;533
12;527
13;520
14;513
15;507
0;502
1;500
2;498
3;497
4;499
5;504
6;509
7;512
8;516
9;518
10;518
11;516
12;513
13;509
14;504
15;497
0;492
1;490
2;488
3;487
4;488
5;492
6;495
7;499
8;503
9;502
10;499
11;496
12;492
13;488
14;484
15;480
0;476
1;473
2;473
3;472
4;472
5;476
6;482
7;486
8;490
9;494
10;496
11;495
12;493
13;490
14;486
15;482
0;476
1;471
2;467
3;465
4;464
5;464
6;466
7;469
8;470
9;474
10;477
11;476
12;476
13;477
14;476
15;472
0;468
1;466
2;461
3;459
4;459
5;460
6;464
7;469
8;473
9;474
10;474
11;477
12;479
13;477
14;472
15;466
0;464
1;463
2;461
3;460
4;462
5;462
6;462
7;464
8;470
9;476
10;483
11;488
12;487
13;487
14;487
15;488
0;486
1;482
2;481
3;480
4;480
5;479
6;476
7;478
8;482
9;487
10;491
11;494
12;496
13;496
14;497
15;497
0;494
1;490
2;487
3;486
4;483
5;481
6;479
7;481
8;484
9;490
10;499
11;504
12;509
13;510
14;507
15;506
0;504
1;500
2;496
3;491
4;488
5;488
6;487
7;489
8;489
9;492
10;499
11;504
12;505
13;507
14;508
15;507
0;505
1;501
2;497
3;493
4;487
5;482
6;481
7;482
8;483
9;487
10;491
11;496
12;502
13;506
14;510
15;506
0;506
1;507
2;507
3;507
4;508
5;509
6;508
7;505
8;502
9;501
10;502
11;505
12;511
13;518
14;525
15;529
0;531
1;533
2;532
3;529
4;524
5;519
6;516
7;514
8;515
9;519
10;523
11;527
12;532
13;535
14;538
15;540
0;540
1;540
2;540
3;537
4;534
5;529
6;522
7;514
8;516
9;513
10;508
11;509
12;515
13;519
14;520
15;526
0;534
1;537
2;542
3;544
4;544
5;542
6;541
7;540
8;539
9;542
10;545
11;548
12;551
13;556
14;560
15;563
0;564
1;563
2;563
3;561
4;553
5;541
6;534
7;527
8;519
9;512
10;510
11;509
12;510
13;514
14;519
15;524
0;524
1;524
2;523
3;522
4;522
5;519
6;512
7;508
8;500
9;494
10;487
11;484
12;480
13;480
14;486
15;491
0;494
1;497
2;497
3;496
4;498
5;497
6;492
7;487
8;480
9;474
10;467
11;467
12;470
13;470
14;473
15;476
0;479
1;484
2;490
3;495
4;493
5;495
6;495
7;489
8;481
9;476
10;469
11;465
12;467
13;467
14;467
15;470
0;479
1;485
2;492
3;498
4;500
5;499
6;499
7;494
8;487
9;484
10;481
11;481
12;479
13;475
14;473
15;476
0;483
1;487
2;487
3;489
4;491
5;492
6;492
7;492
8;490
9;487
10;483
11;482
12;479
13;480
14;482
15;485
0;486
1;490
2;493
3;494
4;495
5;494
6;492
7;490
8;483
9;476
10;469
11;463
12;460
13;459
14;459
15;461
0;461
1;466
2;472
3;477
4;485
5;493
6;499
7;506
8;515
9;522
10;527
11;536
12;551
13;572
14;593
15;615
0;635
1;656
2;681
3;704
4;728
5;755
6;782
7;808
8;831
9;840
10;836
11;822
12;802
13;777
14;742
15;703
0;663
1;623
2;585
3;543
4;502
5;469
6;446
7;425
8;409
9;398
10;388
11;380
12;374
13;369
14;360
15;355
0;357
1;357
2;366
3;377
4;383
5;386
6;397
7;406
8;411
9;418
10;420
11;419
12;417
13;419
14;422
15;428
0;434
1;438
2;440
3;443
4;455
5;459
6;465
7;475
8;477
9;479
10;483
11;483
12;481
13;479
14;479
15;477
0;478
1;482
2;482
3;482
4;484
5;488
6;492
7;498
8;502
9;503
10;504
11;503
12;501
13;496
14;496
15;496
0;494
1;492
2;496
3;499
4;500
5;503
6;508
7;510
8;513
9;517
10;517
11;516
12;517
13;515
14;514
15;512
0;510
1;506
2;506
3;507
4;509
5;511
6;514
7;517
8;520
9;524
10;525
11;527
12;529
13;527
14;524
15;520
0;521
1;520
2;515
3;510
4;508
5;507
6;510
7;516
8;521
9;527
10;532
11;534
12;533
13;534
14;530
15;525
0;521
1;519
2;518
3;517
4;521
5;523
6;524
7;524
8;531
9;540
10;547
11;550
12;550
13;549
14;547
15;544
0;540
1;535
2;531
3;528
4;528
5;527
6;527
7;528
8;529
9;530
10;529
11;536
12;541
13;543
14;548
15;551
0;549
1;550
2;547
3;541
4;539
5;540
6;537
7;536
8;540
9;545
10;550
11;553
12;557
13;559
14;559
15;557
0;557
1;557
2;553
3;549
4;546
5;544
6;545
7;545
8;547
9;551
10;554
11;556
12;556
13;554
14;557
15;558
0;557
1;555
2;552
3;549
4;547
5;544
6;543
7;545
8;545
9;545
10;545
11;549
12;558
13;560
14;561
15;559
0;556
1;551
2;545
3;538
4;534
5;529
6;524
7;522
8;521
9;522
10;525
11;531
12;536
13;541
14;545
15;545
0;543
1;543
2;542
3;537
4;530
5;524
6;523
7;518
8;516
9;516
10;516
11;520
12;524
13;528
14;531
15;531
0;529
1;527
2;526
3;522
4;513
5;506
6;501
7;497
8;495
9;495
10;496
11;497
12;500
13;504
14;505
15;510
0;512
1;515
2;513
3;511
4;510
5;505
6;500
7;496
8;491
9;486
10;483
11;480
12;484
13;487
14;491
15;496
0;498
1;497
2;494
3;489
4;485
5;483
6;480
7;476
8;477
9;480
10;480
11;477
12;479
13;485
14;496
15;505
0;509
1;508
2;504
3;503
4;506
5;501
6;489
7;482
8;475
9;471
10;469
11;472
12;473
13;475
14;479
15;484
0;489
1;496
2;499
3;497
4;494
5;491
6;486
7;482
8;478
9;475
10;474
11;476
12;479
13;479
14;479
15;481
0;486
1;491
2;495
3;497
4;499
5;499
6;496
7;492
8;488
9;484
10;480
11;479
12;480
13;479
14;480
15;484
0;489
1;495
2;503
3;507
4;508
5;505
6;503
7;501
8;498
9;495
10;491
11;488
12;490
13;489
14;492
15;497
0;501
1;504
2;508
3;511
4;511
5;510
6;509
7;504
8;500
9;496
10;493
11;492
12;495
13;499
14;505
15;506
0;512
1;516
2;519
3;523
4;524
5;520
6;517
7;514
8;511
9;509
10;506
11;502
12;497
13;496
14;498
15;500
0;501
1;499
2;503
3;505
4;507
5;509
6;510
7;513
8;517
9;517
10;517
11;518
12;518
13;518
14;513
15;512
0;512
1;514
2;519
3;523
4;528
5;538
6;540
7;537
8;535
9;531
10;528
11;524
12;519
13;512
14;509
15;508
0;511
1;512
2;519
3;526
4;528
5;528
6;532
7;532
8;530
9;528
10;525
11;521
12;516
13;511
14;509
15;510
0;515
1;516
2;517
3;524
4;530
5;537
6;542
7;546
8;548
9;550
10;550
11;544
12;540
13;538
14;533
15;529
0;527
1;526
2;525
3;524
4;526
5;528
6;532
7;535
8;537
9;536
10;533
11;529
12;524
13;519
14;515
15;509
0;505
1;505
2;506
3;506
4;507
5;509
6;512
7;515
8;517
9;515
10;510
11;505
12;501
13;496
14;493
15;489
0;482
1;477
2;474
3;472
4;471
5;471
6;474
7;476
8;480
9;485
10;485
11;483
12;483
13;480
14;474
15;469
0;464
1;463
2;464
3;465
4;468
5;473
6;481
7;487
8;495
9;501
10;495
11;488
12;487
13;483
14;478
15;476
0;472
1;468
2;464
3;464
4;465
5;465
6;470
7;478
8;483
9;490
10;494
11;495
12;495
13;496
14;495
15;491
0;487
1;484
2;480
3;477
4;477
5;477
6;478
7;482
8;486
9;488
10;493
11;500
12;501
13;499
14;497
15;492
0;487
1;485
2;482
3;478
4;479
5;481
6;482
7;483
8;485
9;482
10;482
11;481
12;481
13;482
14;483
15;475
0;466
1;462
2;460
3;460
4;463
5;470
6;481
7;493
8;505
9;520
10;539
11;560
12;583
13;604
14;622
15;640
0;655
1;670
2;686
3;699
4;718
5;743
6;768
7;791
8;807
9;817
10;816
11;806
12;789
13;766
14;734
15;696
0;655
1;610
2;563
3;520
4;482
5;451
6;430
7;414
8;403
9;396
10;394
11;396
12;399
13;399
14;400
15;402
0;405
1;407
2;405
3;401
4;399
5;397
6;398
7;402
8;405
9;407
10;413
11;421
12;428
13;436
14;444
15;450
0;454
1;458
2;461
3;460
4;460
5;461
6;463
7;463
8;464
9;467
10;468
11;475
12;479
13;483
14;488
15;496
0;499
1;501
2;504
3;504
4;500
5;497
6;493
7;492
8;491
9;491
10;489
11;490
12;500
13;507
14;514
15;517
0;515
1;511
2;514
3;515
4;509
5;506
6;505
7;499
8;493
9;492
10;491
11;492
12;496
13;503
14;509
15;515
0;519
1;522
2;524
3;524
4;520
5;516
6;513
7;511
8;507
9;505
10;508
11;511
12;515
13;521
14;527
15;531
0;535
1;536
2;533
3;531
4;534
5;529
6;522
7;520
8;519
9;518
10;518
11;522
12;524
13;529
14;533
15;535
0;538
1;541
2;543
3;541
4;540
5;536
6;530
7;524
8;519
9;515
10;511
11;507
12;506
13;508
14;515
15;522
0;525
1;527
2;528
3;529
4;531
5;534
6;534
7;529
8;527
9;523
10;518
11;516
12;516
13;515
14;517
15;522
0;528
1;535
2;542
3;546
4;547
5;547
6;545
7;541
8;536
9;533
10;529
11;525
12;524
13;526
14;527
15;530
0;536
1;538
2;543
3;550
4;554
5;558
6;560
7;560
8;556
9;551
10;547
11;540
12;536
13;537
14;537
15;539
0;542
1;545
2;545
3;548
4;551
5;554
6;555
7;555
8;551
9;543
10;537
11;534
12;528
13;524
14;524
15;526
0;527
1;532
2;532
3;531
4;532
5;535
6;540
7;539
8;534
9;528
10;521
11;518
12;514
13;515
14;518
15;512
0;508
1;508
2;511
3;512
4;516
5;521
6;522
7;521
8;521
9;518
10;513
11;509
12;506
13;503
14;499
15;498
0;494
1;492
2;492
3;495
4;501
5;503
6;507
7;507
8;505
9;505
10;501
11;497
12;495
13;492
14;485
15;483
0;487
1;488
2;490
3;493
4;495
5;497
6;499
7;500
8;500
9;500
10;497
11;494
12;491
13;487
14;481
15;475
0;476
1;477
2;476
3;480
4;484
5;489
6;494
7;497
8;498
9;498
10;498
11;497
12;490
13;486
14;483
15;480
0;477
1;478
2;477
3;475
4;481
5;490
6;497
7;502
8;506
9;505
10;504
11;502
12;498
13;494
14;491
15;487
0;486
1;485
2;485
3;483
4;481
5;481
6;483
7;486
8;489
9;492
10;493
11;493
12;494
13;487
14;483
15;482
0;478
1;474
2;475
3;476
4;476
5;481
6;487
7;491
8;494
9;500
10;503
11;506
12;509
13;508
14;503
15;494
0;490
1;491
2;492
3;496
4;497
5;498
6;496
7;499
8;503
9;507
10;512
11;513
12;515
13;518
14;516
15;510
0;501
1;496
2;495
3;501
4;505
5;501
6;501
7;506
8;512
9;515
10;519
11;523
12;524
13;524
14;522
15;520
0;516
1;511
2;506
3;501
4;504
5;508
6;508
7;509
8;510
9;509
10;508
11;509
12;509
13;506
14;505
15;501
0;499
1;498
2;492
3;488
4;485
5;483
6;484
7;487
8;496
9;506
10;512
11;516
12;521
13;522
14;520
15;519
0;514
1;507
2;502
3;496
4;491
5;495
6;496
7;496
8;496
9;499
10;504
11;509
12;515
13;521
14;524
15;525
0;527
1;523
2;517
3;513
4;510
5;512
6;516
7;516
8;516
9;515
10;515
11;515
12;519
13;524
14;526
15;524
0;522
1;517
2;512
3;507
4;502
5;497
6;496
7;497
8;499
9;502
10;508
11;515
12;523
13;529
14;536
15;541
0;542
1;543
2;539
3;534
4;531
5;528
6;525
7;522
8;520
9;521
10;523
11;525
12;528
13;531
14;534
15;534
0;532
1;531
2;528
3;524
4;520
5;516
6;513
7;511
8;510
9;504
10;501
11;505
12;509
13;512
14;515
15;516
0;513
1;510
2;509
3;505
4;496
5;487
6;476
7;468
8;462
9;457
10;455
11;456
12;460
13;465
14;471
15;476
0;480
1;478
2;476
3;476
4;470
5;465
6;463
7;462
8;460
9;458
10;456
11;461
12;461
13;462
14;464
15;469
0;476
1;479
2;478
3;478
4;479
5;479
6;476
7;471
8;468
9;468
10;468
11;467
12;467
13;471
14;476
15;480
0;483
1;488
2;490
3;492
4;491
5;487
6;486
7;480
8;473
9;469
10;464
11;462
12;462
13;463
14;468
15;472
0;478
1;483
2;487
3;488
4;489
5;490
6;488
7;483
8;481
9;480
10;480
11;481
12;482
13;483
14;487
15;490
0;490
1;489
2;489
3;488
4;486
5;483
6;479
7;473
8;468
9;466
10;464
11;463
12;466
13;470
14;477
15;485
0;498
1;515
2;531
3;545
4;560
5;576
6;593
7;612
8;628
9;646
10;663
11;678
12;693
13;712
14;736
15;758
0;783
1;807
2;824
3;832
4;831
5;815
6;793
7;764
8;728
9;686
10;648
11;603
12;555
13;514
14;482
15;451
0;429
1;416
2;406
3;398
4;393
5;390
6;389
7;386
8;380
9;374
10;373
11;374
12;375
13;379
14;386
15;392
0;397
1;401
2;407
3;414
4;420
5;427
6;434
7;436
8;440
9;443
10;442
11;444
12;446
13;446
14;449
15;452
0;456
1;463
2;469
3;476
4;482
5;488
6;495
7;498
8;499
9;500
10;498
11;494
12;490
13;489
14;489
15;492
0;498
1;499
2;500
3;504
4;508
5;511
6;513
7;514
8;514
9;514
10;513
11;509
12;503
13;498
14;493
15;490
0;491
1;491
2;490
3;494
4;499
5;503
6;508
7;513
8;517
9;519
10;523
11;525
12;524
13;519
14;511
15;505
0;502
1;503
2;504
3;505
4;511
5;515
6;521
7;526
8;530
9;530
10;529
11;527
12;524
13;520
14;518
15;515
0;511
1;510
2;513
3;513
4;513
5;519
6;520
7;524
8;529
9;535
10;541
11;543
12;542
13;537
14;531
15;527
0;522
1;518
2;515
3;517
4;521
5;525
6;530
7;533
8;540
9;548
10;555
11;557
12;560
13;555
14;550
15;544
0;542
1;539
2;536
3;536
4;535
5;535
6;538
7;540
8;544
9;549
10;551
11;551
12;551
13;552
14;549
15;545
0;542
1;540
2;540
3;543
4;545
5;547
6;551
7;554
8;558
9;559
10;561
11;563
12;563
13;564
14;559
15;553
0;550
1;548
2;543
3;541
4;542
5;543
6;544
7;547
8;552
9;555
10;558
11;561
12;561
13;559
14;558
15;555
0;549
1;542
2;538
3;536
4;536
5;538
6;539
7;540
8;543
9;546
10;549
11;553
12;553
13;555
14;553
15;553
0;548
1;540
2;531
3;524
4;521
5;520
6;519
7;518
8;522
9;528
10;532
11;534
12;534
13;534
14;532
15;530
0;527
1;522
2;517
3;515
4;511
5;508
6;508
7;509
8;510
9;512
10;513
11;517
12;523
13;525
14;522
15;519
0;516
1;513
2;508
3;503
4;497
5;490
6;485
7;482
8;480
9;478
10;483
11;486
12;492
13;499
14;502
15;502
0;503
1;499
2;492
3;487
4;487
5;491
6;489
7;485
8;481
9;480
10;480
11;480
12;481
13;487
14;496
15;500
0;500
1;500
2;500
3;497
4;494
5;489
6;483
7;480
8;481
9;482
10;481
11;482
12;484
13;485
14;486
15;492
0;492
1;491
2;491
3;488
4;483
5;480
6;477
7;473
8;472
9;472
10;474
11;479
12;486
13;494
14;499
15;502
0;504
1;504
2;501
3;499
4;494
5;487
6;483
7;479
8;478
9;479
10;478
11;477
12;478
13;480
14;485
15;493
0;499
1;500
2;500
3;500
4;499
5;497
6;492
7;488
8;484
9;482
10;483
11;486
12;488
13;491
14;494
15;495
0;499
1;505
2;508
3;509
4;509
5;507
6;505
7;503
8;499
9;493
10;490
11;491
12;491
13;492
14;497
15;504
0;513
1;520
2;522
3;521
4;520
5;519
6;514
7;508
8;503
9;497
10;493
11;492
12;492
13;490
14;490
15;496
0;502
1;506
2;511
3;515
4;516
5;515
6;512
7;508
8;504
9;499
10;495
11;494
12;495
13;495
14;498
15;504
0;511
1;515
2;518
3;519
4;520
5;521
6;523
7;522
8;517
9;513
10;509
11;506
12;504
13;505
14;505
15;506
0;511
1;516
2;521
3;525
4;527
5;531
6;532
7;531
8;527
9;523
10;518
11;514
12;514
13;509
14;504
15;499
0;495
1;506
2;512
3;520
4;526
5;526
6;525
7;523
8;519
9;515
10;516
11;518
12;516
13;516
14;518
15;518
0;516
1;520
2;530
3;540
4;548
5;556
6;556
7;556
8;556
9;550
10;543
11;537
12;532
13;526
14;523
15;524
0;526
1;528
2;532
3;532
4;532
5;535
6;537
7;535
8;532
9;531
10;529
11;526
12;521
13;516
14;513
15;512
0;511
1;510
2;510
3;511
4;511
5;511
6;511
7;510
8;508
9;505
10;503
11;497
12;492
13;487
14;483
15;480
0;480
1;480
2;481
3;484
4;489
5;490
6;493
7;495
8;495
9;493
10;489
11;484
12;481
13;480
14;479
15;475
0;472
1;470
2;469
3;470
4;473
5;476
6;480
7;486
8;491
9;492
10;491
11;491
12;487
13;482
14;482
15;480
0;472
1;472
2;476
3;476
4;480
5;488
6;488
7;489
8;494
9;495
10;493
11;496
12;494
13;488
14;483
15;479
0;474
1;472
2;478
3;483
4;486
5;490
6;495
7;497
8;499
9;504
10;504
11;504
12;503
13;501
14;498
15;497
0;491
1;485
2;482
3;481
4;480
5;480
6;484
7;488
8;491
9;490
10;488
11;489
12;487
13;487
14;486
15;485
0;486
1;488
2;490
3;495
4;504
5;519
6;533
7;550
8;571
9;593
10;615
11;636
12;656
13;676
14;692
15;707
0;726
1;744
2;764
3;786
4;809
5;819
6;817
7;811
8;799
9;783
10;764
11;734
12;694
13;654
14;612
15;568
0;523
1;486
2;454
3;428
4;411
5;401
6;393
7;389
8;392
9;396
10;400
11;406
12;415
13;423
14;428
15;424
0;418
1;412
2;409
3;404
4;403
5;406
6;408
7;409
8;415
9;424
10;433
11;444
12;455
13;463
14;468
15;472
0;472
1;471
2;472
3;473
4;474
5;479
6;483
7;484
8;488
9;494
10;501
11;510
12;517
13;523
14;522
15;523
0;522
1;519
2;513
3;510
4;505
5;502
6;502
7;504
8;505
9;508
10;516
11;524
12;530
13;538
14;543
15;544
0;545
1;544
2;539
3;534
4;527
5;522
6;520
7;520
8;519
9;519
10;520
11;525
12;532
13;540
14;545
15;548
0;551
1;552
2;550
3;544
4;537
5;532
6;525
7;527
8;530
9;528
10;524
11;529
12;533
13;535
14;536
15;538
0;539
1;539
2;541
3;539
4;533
5;529
6;527
7;526
8;526
9;527
10;526
11;528
12;533
13;536
14;539
15;543
0;545
1;546
2;545
3;546
4;543
5;539
6;533
7;529
8;526
9;524
10;524
11;524
12;526
13;531
14;533
15;538
0;542
1;545
2;547
3;547
4;544
5;539
6;533
7;531
8;531
9;532
10;529
11;530
12;532
13;536
14;539
15;545
0;552
1;556
2;557
3;557
4;556
5;553
6;550
7;550
8;548
9;544
10;543
11;543
12;543
13;546
14;551
15;556
0;562
1;564
2;567
3;572
4;572
5;568
6;561
7;555
8;551
9;544
10;538
11;536
12;539
13;542
14;544
15;550
0;553
1;554
2;558
3;559
4;560
5;560
6;559
7;556
8;550
9;545
10;540
11;536
12;535
13;532
14;533
15;536
0;539
1;542
2;545
3;546
4;544
5;543
6;536
7;534
8;530
9;526
10;522
11;515
12;513
13;516
14;515
15;514
0;515
1;519
2;524
3;529
4;532
5;529
6;526
7;522
8;517
9;514
10;511
11;504
12;498
13;497
14;494
15;492
0;493
1;497
2;501
3;507
4;510
5;510
6;509
7;506
8;500
9;494
10;491
11;488
12;483
13;481
14;480
15;479
0;480
1;484
2;488
3;494
4;499
5;501
6;498
7;496
8;494
9;490
10;487
11;487
12;486
13;485
14;484
15;480
0;476
1;476
2;479
3;479
4;481
5;487
6;492
7;494
8;495
9;495
10;492
11;487
12;482
13;476
14;475
15;475
0;473
1;474
2;474
3;480
4;484
5;487
6;489
7;487
8;489
9;491
10;490
11;487
12;483
13;480
14;478
15;477
0;480
1;481
2;482
3;487
4;492
5;495
6;499
7;502
8;501
9;501
10;499
11;495
12;491
13;489
14;485
15;482
0;480
1;483
2;485
3;488
4;497
5;501
6;506
7;512
8;515
9;512
10;511
11;512
12;510
13;508
14;506
15;499
0;495
1;492
2;491
3;492
4;495
5;499
6;500
7;501
8;503
9;504
10;508
11;510
12;510
13;506
14;501
15;499
0;496
1;492
2;491
3;493
4;498
5;506
6;508
7;510
8;512
9;513
10;512
11;512
12;509
13;506
14;500
15;497
0;496
1;497
2;499
3;499
4;497
5;498
6;503
7;508
8;513
9;515
10;520
11;523
12;523
13;521
14;517
15;512
0;511
1;505
2;501
3;497
4;494
5;493
6;495
7;498
8;500
9;503
10;505
11;507
12;509
13;509
14;508
15;506
0;504
1;501
2;499
3;497
4;497
5;496
6;499
7;504
8;510
9;515
10;520
11;525
12;529
13;532
14;532
15;529
0;526
1;521
2;517
3;516
4;517
5;517
6;511
7;507
8;508
9;510
10;514
11;518
12;519
13;515
14;514
15;514
0;509
1;506
2;504
3;505
4;504
5;510
6;515
7;519
8;527
9;535
10;542
11;542
12;547
13;546
14;542
15;537
0;532
1;526
2;520
3;515
4;510
5;506
6;505
7;507
8;509
9;512
10;515
11;519
12;523
13;527
14;525
15;522
0;518
1;511
2;506
3;499
4;496
5;494
6;491
7;488
8;487
9;488
10;490
11;492
12;496
13;499
14;498
15;497
0;494
1;492
2;490
3;484
4;478
5;471
6;469
7;464
8;462
9;464
10;470
11;475
12;477
13;480
14;483
15;484
0;486
1;488
2;487
3;483
4;480
5;476
6;471
7;467
8;469
9;470
10;472
11;473
12;477
13;482
14;487
15;489
0;489
1;488
2;483
3;475
4;467
5;464
6;462
7;462
8;464
9;467
10;468
11;472
12;478
13;482
14;487
15;488
0;490
1;491
2;490
3;487
4;482
5;477
6;476
7;471
8;467
9;465
10;462
11;460
12;467
13;475
14;486
15;494
0;495
1;493
2;492
3;486
4;480
5;476
6;473
7;475
8;475
9;474
10;472
11;471
12;471
13;472
14;473
15;472
0;472
1;474
2;473
3;467
4;463
5;457
6;457
7;458
8;458
9;458
10;463
11;473
12;484
13;498
14;516
15;534
0;559
1;585
2;608
3;629
4;649
5;668
6;682
7;698
8;717
9;736
10;758
11;780
12;798
13;807
14;806
15;798
0;782
1;757
2;727
3;690
4;652
5;612
6;567
7;520
8;479
9;444
10;415
11;394
12;380
13;370
14;362
15;360
0;361
1;363
2;367
3;372
4;376
5;381
6;386
7;390
8;390
9;389
10;387
11;387
12;391
13;395
14;399
15;404
0;414
1;422
2;435
3;444
4;444
5;444
6;445
7;446
8;445
9;449
10;453
11;454
12;457
13;460
14;461
15;462
0;465
1;468
2;476
3;481
4;489
5;497
6;501
7;500
8;495
9;490
10;486
11;483
12;483
13;487
14;491
15;490
0;489
1;491
2;493
3;499
4;504
5;508
6;509
7;508
8;506
9;503
10;500
11;498
12;498
13;496
14;498
15;501
0;501
1;504
2;510
3;513
4;517
5;523
6;525
7;525
8;525
9;523
10;517
11;512
12;506
13;500
14;499
15;500
0;503
1;505
2;506
3;512
4;516
5;520
6;521
7;520
8;523
9;525
10;523
11;517
12;514
13;515
14;517
15;518
0;518
1;518
2;520
3;526
4;531
5;534
6;537
7;540
8;539
9;537
10;534
11;528
12;525
13;520
14;515
15;510
0;511
1;511
2;511
3;512
4;518
5;521
6;527
7;534
8;535
9;536
10;537
11;535
12;528
13;525
14;522
15;519
0;519
1;521
2;520
3;520
4;524
5;528
6;532
7;537
8;538
9;538
10;536
11;534
12;531
13;528
14;526
15;524
0;519
1;515
2;519
3;519
4;522
5;529
6;537
7;543
8;548
9;551
10;550
11;547
12;545
13;543
14;541
15;541
0;540
1;536
2;533
3;534
4;535
5;536
6;535
7;535
8;536
9;537
10;537
11;540
12;540
13;538
14;533
15;538
0;541
1;538
2;535
3;534
4;535
5;536
6;539
7;542
8;543
9;544
10;544
11;541
12;538
13;535
14;529
15;521
0;514
1;508
2;502
3;499
4;503
5;506
6;510
7;516
8;522
9;525
10;527
11;528
12;527
13;526
14;522
15;517
0;511
1;504
2;497
3;493
4;492
5;493
6;494
7;495
8;499
9;504
10;510
11;513
12;512
13;509
14;507
15;503
0;497
1;492
2;488
3;481
4;477
5;478
6;480
7;479
8;480
9;485
10;488
11;493
12;496
13;493
14;489
15;487
0;484
1;480
2;476
3;473
4;468
5;466
6;468
7;471
8;472
9;474
10;477
11;482
12;489
13;494
14;494
15;493
0;492
1;489
2;487
3;484
4;479
5;476
6;477
7;479
8;479
9;481
10;482
11;484
12;488
13;490
14;488
15;490
0;491
1;489
2;485
3;479
4;474
5;471
6;470
7;471
8;471
9;471
10;478
11;486
12;490
13;494
14;497
15;500
0;502
1;502
2;499
3;492
4;484
5;483
6;480
7;481
8;483
9;484
10;485
11;488
12;491
13;496
14;503
15;508
0;508
1;510
2;508
3;504
4;499
5;496
6;493
7;489
8;489
9;489
10;489
11;494
12;497
13;499
14;504
15;509
0;510
1;508
2;505
3;503
4;501
5;500
6;498
7;496
8;493
9;491
10;490
11;489
12;494
13;500
14;509
15;520
0;528
1;528
2;527
3;525
4;519
5;513
6;513
7;509
8;504
9;501
10;502
11;500
12;500
13;503
14;509
15;515
0;520
1;525
2;525
3;528
4;527
5;522
6;518
7;510
8;503
9;502
10;499
11;498
12;499
13;503
14;508
15;514
0;521
1;524
2;524
3;525
4;525
5;526
6;519
7;515
8;512
9;505
10;507
11;506
12;506
13;510
14;515
15;521
0;526
1;532
2;537
3;539
4;539
5;535
6;530
7;528
8;528
9;527
10;524
11;519
12;517
13;514
14;512
15;514
0;517
1;517
2;521
3;523
4;522
5;520
6;519
7;516
8;512
9;509
10;506
11;507
12;511
13;516
14;518
15;524
0;531
1;540
2;548
3;556
4;558
5;556
6;553
7;549
8;544
9;539
10;532
11;526
12;523
13;521
14;520
15;520
0;525
1;531
2;535
3;538
4;540
5;538
6;536
7;532
8;526
9;520
10;516
11;515
12;513
13;510
14;510
15;509
0;509
1;507
2;506
3;506
4;507
5;505
6;503
7;501
8;496
9;491
10;485
11;482
12;481
13;478
14;475
15;476
0;478
1;480
2;485
3;492
4;499
5;501
6;504
7;504
8;504
9;499
10;491
11;487
12;483
13;480
14;478
15;475
0;475
1;478
2;483
3;489
4;491
5;497
6;503
7;502
8;504
9;503
10;498
11;494
12;491
13;489
14;486
15;484
0;484
1;483
2;485
3;491
4;499
5;504
6;508
7;511
8;511
9;512
10;511
11;508
12;504
13;502
14;500
15;496
0;499
1;501
2;499
3;503
4;508
5;510
6;513
7;518
8;520
9;520
10;518
11;513
12;505
13;500
14;495
15;492
0;493
1;492
2;491
3;489
4;486
5;485
6;486
7;488
8;490
9;490
10;491
11;489
12;485
13;485
14;486
15;490
0;495
1;498
2;505
3;515
4;530
5;550
6;569
7;593
8;618
9;640
10;662
11;684
12;704
13;719
14;736
15;753
0;771
1;792
2;814
3;826
4;829
5;825
6;812
7;793
8;770
9;738
10;701
11;662
12;620
13;575
14;529
15;490
0;457
1;430
2;411
3;399
4;391
5;387
6;386
7;387
8;387
9;392
10;400
11;404
12;408
13;408
14;404
15;404
0;404
1;403
2;407
3;408
4;410
5;414
6;421
7;429
8;438
9;447
10;455
11;462
12;465
13;467
14;468
15;470
0;469
1;468
2;466
3;465
4;468
5;474
6;481
7;491
8;501
9;512
10;521
11;523
12;520
13;518
14;514
15;517
0;517
1;518
2;516
3;513
4;512
5;511
6;510
7;515
8;520
9;523
10;525
11;528
12;531
13;532
14;534
15;535
0;536
1;532
2;526
3;519
4;515
5;512
6;511
7;512
8;515
9;519
10;521
11;522
12;531
13;536
14;534
15;530
0;529
1;527
2;527
3;522
4;519
5;516
6;515
7;518
8;519
9;523
10;527
11;530
12;534
13;536
14;536
15;535
0;535
1;533
2;528
3;524
4;522
5;519
6;518
7;520
8;521
9;522
10;525
11;527
12;528
13;531
14;533
15;533
0;531
1;528
2;523
3;518
4;514
5;512
6;511
7;513
8;512
9;509
10;511
11;518
12;527
13;534
14;539
15;540
0;536
1;536
2;533
3;527
4;518
5;511
6;509
7;509
8;514
9;517
10;518
11;523
12;529
13;534
14;537
15;540
0;541
1;540
2;538
3;535
4;531
5;526
6;522
7;520
8;520
9;523
10;523
11;524
12;528
13;532
14;535
15;541
0;546
1;546
2;544
3;544
4;540
5;530
6;524
7;521
8;525
9;529
10;528
11;527
12;526
13;528
14;531
15;533
0;539
1;541
2;540
3;540
4;538
5;532
6;527
7;522
8;519
9;517
10;514
11;510
12;508
13;508
14;510
15;515
0;524
1;529
2;530
3;529
4;526
5;521
6;515
7;510
8;504
9;499
10;495
11;495
12;496
13;495
14;497
15;502
0;508
1;512
2;515
3;513
4;510
5;506
6;503
7;500
8;496
9;492
10;488
11;486
12;486
13;486
14;487
15;489
0;492
1;495
2;501
3;505
4;502
5;501
6;500
7;496
8;492
9;483
10;473
11;468
12;466
13;462
14;460
15;461
0;467
1;470
2;475
3;479
4;480
5;480
6;478
7;473
8;467
9;463
10;458
11;458
12;457
13;455
14;456
15;460
0;465
1;471
2;476
3;484
4;489
5;489
6;486
7;483
8;480
9;469
10;459
11;459
12;458
13;459
14;460
15;461
0;463
1;467
2;470
3;476
4;481
5;482
6;482
7;484
8;483
9;482
10;480
11;479
12;478
13;473
14;473
15;473
0;473
1;477
2;480
3;483
4;489
5;492
6;491
7;489
8;488
9;487
10;487
11;486
12;483
13;482
14;482
15;482
0;482
1;482
2;483
3;488
4;494
5;497
6;501
7;501
8;502
9;502
10;500
11;498
12;493
13;489
14;487
15;488
0;487
1;487
2;491
3;496
4;500
5;502
6;504
7;507
8;508
9;511
10;512
11;509
12;505
13;503
14;496
15;489
0;489
1;487
2;483
3;486
4;492
5;498
6;503
7;507
8;510
9;509
10;508
11;506
12;500
13;496
14;494
15;493
0;491
1;489
2;489
3;492
4;495
5;500
6;504
7;511
8;515
9;518
10;523
11;525
12;521
13;517
14;512
15;505
0;500
1;501
2;501
3;503
4;507
5;511
6;512
7;515
8;516
9;516
10;513
11;511
12;511
13;509
14;510
15;505
0;506
1;507
2;507
3;507
4;508
5;512
6;515
7;517
8;522
9;529
10;531
11;531
12;529
13;528
14;525
15;521
0;517
1;515
2;514
3;513
4;514
5;516
6;519
7;521
8;522
9;525
10;526
11;525
12;524
13;526
14;525
15;521
0;517
1;512
2;508
3;507
4;508
5;510
6;515
7;523
8;527
9;533
10;537
11;540
12;538
13;536
14;534
15;532
0;531
1;528
2;525
3;519
4;515
5;514
6;516
7;519
8;526
9;531
10;539
11;544
12;543
13;542
14;542
15;536
0;529
1;525
2;518
3;511
4;507
5;506
6;501
7;504
8;508
9;511
10;517
11;520
12;524
13;518
14;512
15;507
0;500
1;495
2;494
3;489
4;484
5;484
6;484
7;485
8;487
9;491
10;494
11;497
12;499
13;501
14;501
15;500
0;497
1;493
2;489
3;485
4;480
5;475
6;477
7;472
8;474
9;476
10;479
11;482
12;486
13;490
14;489
15;488
0;488
1;486
2;483
3;479
4;475
5;473
6;474
7;478
8;480
9;483
10;489
11;496
12;504
13;509
14;510
15;502
0;496
1;491
2;486
3;480
4;475
5;471
6;468
7;466
8;465
9;466
10;470
11;474
12;477
13;483
14;490
15;493
0;494
1;495
2;492
3;486
4;485
5;484
