0;541
1.0;545.0
2.0;549.0
3.0;549.0
4.0;548.0
5.0;548.0
6.0;548.0
7.0;546.0
8.0;544.0
9.0;539.0
10.0;534.0
11.0;531.0
12.0;529.0
13.0;531.0
14.0;536.0
15.0;544.0
0.0;549.0
1.0;553.0
2.0;556.0
3.0;559.0
4.0;560.0
5.0;561.0
6.0;560.0
7.0;554.0
8.0;548.0
9.0;542.0
10.0;538.0
11.0;532.0
12.0;528.0
13.0;527.0
14.0;522.0
15.0;522.0
0.0;524.0
1.0;530.0
2.0;539.0
3.0;546.0
4.0;545.0
5.0;545.0
6.0;548.0
7.0;544.0
8.0;536.0
9.0;528.0
10.0;519.0
11.0;512.0
12.0;511.0
13.0;514.0
14.0;512.0
15.0;508.0
0.0;503.0
1.0;498.0
2.0;485.0
3.0;475.0
4.0;474.0
5.0;483.0
6.0;485.0
7.0;482.0
8.0;482.0
9.0;475.0
10.0;471.0
11.0;473.0
12.0;473.0
13.0;471.0
14.0;471.0
15.0;472.0
0.0;473.0
1.0;482.0
2.0;491.0
3.0;499.0
4.0;510.0
5.0;506.0
6.0;492.0
7.0;488.0
8.0;483.0
9.0;476.0
10.0;469.0
11.0;467.0
12.0;467.0
13.0;465.0
14.0;463.0
15.0;464.0
0.0;468.0
1.0;472.0
2.0;477.0
3.0;479.0
4.0;480.0
5.0;481.0
6.0;483.0
7.0;484.0
8.0;484.0
9.0;481.0
10.0;477.0
11.0;473.0
12.0;468.0
13.0;463.0
14.0;460.0
15.0;463.0
0.0;465.0
1.0;467.0
2.0;475.0
3.0;485.0
4.0;489.0
5.0;487.0
6.0;487.0
7.0;487.0
8.0;487.0
9.0;486.0
10.0;483.0
11.0;480.0
12.0;478.0
13.0;479.0
14.0;479.0
15.0;480.0
0.0;480.0
1.0;480.0
2.0;486.0
3.0;491.0
4.0;495.0
5.0;498.0
6.0;501.0
7.0;505.0
8.0;505.0
9.0;505.0
10.0;507.0
11.0;500.0
12.0;489.0
13.0;482.0
14.0;476.0
15.0;467.0
0.0;462.0
1.0;462.0
2.0;464.0
3.0;470.0
4.0;481.0
5.0;492.0
6.0;502.0
7.0;507.0
8.0;505.0
9.0;502.0
10.0;498.0
11.0;494.0
12.0;487.0
13.0;485.0
14.0;485.0
15.0;481.0
0.0;483.0
1.0;487.0
2.0;480.0
3.0;476.0
4.0;476.0
5.0;476.0
6.0;477.0
7.0;485.0
8.0;493.0
9.0;494.0
10.0;495.0
11.0;493.0
12.0;491.0
13.0;489.0
14.0;486.0
15.0;484.0
0.0;481.0
1.0;479.0
2.0;480.0
3.0;483.0
4.0;490.0
5.0;497.0
6.0;504.0
7.0;508.0
8.0;513.0
9.0;519.0
10.0;519.0
11.0;518.0
12.0;512.0
13.0;505.0
14.0;500.0
15.0;497.0
0.0;494.0
1.0;487.0
2.0;482.0
3.0;480.0
4.0;478.0
5.0;483.0
6.0;491.0
7.0;498.0
8.0;508.0
9.0;516.0
10.0;519.0
11.0;521.0
12.0;523.0
13.0;523.0
14.0;521.0
15.0;518.0
0.0;512.0
1.0;508.0
2.0;506.0
3.0;501.0
4.0;493.0
5.0;489.0
6.0;495.0
7.0;501.0
8.0;504.0
9.0;516.0
10.0;524.0
11.0;527.0
12.0;526.0
13.0;522.0
14.0;521.0
15.0;521.0
0.0;518.0
1.0;511.0
2.0;502.0
3.0;495.0
4.0;494.0
5.0;493.0
6.0;497.0
7.0;499.0
8.0;499.0
9.0;501.0
10.0;506.0
11.0;512.0
12.0;513.0
13.0;512.0
14.0;511.0
15.0;512.0
0.0;508.0
1.0;502.0
2.0;497.0
3.0;494.0
4.0;496.0
5.0;499.0
6.0;502.0
7.0;505.0
8.0;515.0
9.0;519.0
10.0;520.0
11.0;524.0
12.0;527.0
13.0;527.0
14.0;527.0
15.0;526.0
0.0;520.0
1.0;516.0
2.0;512.0
3.0;508.0
4.0;504.0
5.0;504.0
6.0;504.0
7.0;506.0
8.0;510.0
9.0;515.0
10.0;519.0
11.0;524.0
12.0;531.0
13.0;533.0
14.0;534.0
15.0;533.0
0.0;527.0
1.0;523.0
2.0;518.0
3.0;513.0
4.0;506.0
5.0;500.0
6.0;504.0
7.0;508.0
8.0;508.0
9.0;510.0
10.0;512.0
11.0;521.0
12.0;527.0
13.0;528.0
14.0;518.0
15.0;514.0
0.0;515.0
1.0;515.0
2.0;513.0
3.0;505.0
4.0;497.0
5.0;495.0
6.0;494.0
7.0;493.0
8.0;497.0
9.0;501.0
10.0;506.0
11.0;511.0
12.0;514.0
13.0;520.0
14.0;524.0
15.0;524.0
0.0;520.0
1.0;514.0
2.0;511.0
3.0;505.0
4.0;500.0
5.0;496.0
6.0;494.0
7.0;497.0
8.0;502.0
9.0;509.0
10.0;513.0
11.0;518.0
12.0;521.0
13.0;525.0
14.0;528.0
15.0;531.0
0.0;532.0
1.0;530.0
2.0;526.0
3.0;522.0
4.0;520.0
5.0;517.0
6.0;515.0
7.0;514.0
8.0;514.0
9.0;513.0
10.0;514.0
11.0;518.0
12.0;524.0
13.0;529.0
14.0;535.0
15.0;540.0
0.0;541.0
1.0;539.0
2.0;536.0
3.0;531.0
4.0;524.0
5.0;519.0
6.0;518.0
7.0;522.0
8.0;523.0
9.0;520.0
10.0;515.0
11.0;514.0
12.0;515.0
13.0;518.0
14.0;524.0
15.0;531.0
0.0;533.0
1.0;531.0
2.0;530.0
3.0;523.0
4.0;511.0
5.0;502.0
6.0;498.0
7.0;498.0
8.0;503.0
9.0;505.0
10.0;508.0
11.0;510.0
12.0;516.0
13.0;522.0
14.0;529.0
15.0;538.0
0.0;545.0
1.0;548.0
2.0;551.0
3.0;555.0
4.0;557.0
5.0;551.0
6.0;544.0
7.0;536.0
8.0;530.0
9.0;526.0
10.0;527.0
11.0;526.0
12.0;525.0
13.0;530.0
14.0;535.0
15.0;539.0
0.0;543.0
1.0;545.0
2.0;547.0
3.0;547.0
4.0;546.0
5.0;541.0
6.0;534.0
7.0;529.0
8.0;524.0
9.0;521.0
10.0;519.0
11.0;520.0
12.0;521.0
13.0;520.0
14.0;523.0
15.0;527.0
0.0;533.0
1.0;542.0
2.0;548.0
3.0;549.0
4.0;543.0
5.0;531.0
6.0;519.0
7.0;511.0
8.0;505.0
9.0;500.0
10.0;496.0
11.0;494.0
12.0;495.0
13.0;496.0
14.0;499.0
15.0;505.0
0.0;507.0
1.0;507.0
2.0;516.0
3.0;519.0
4.0;518.0
5.0;522.0
6.0;523.0
7.0;515.0
8.0;512.0
9.0;512.0
10.0;512.0
11.0;510.0
12.0;507.0
13.0;502.0
14.0;497.0
15.0;498.0
0.0;503.0
1.0;510.0
2.0;518.0
3.0;526.0
4.0;528.0
5.0;526.0
6.0;521.0
7.0;515.0
8.0;511.0
9.0;508.0
10.0;505.0
11.0;509.0
12.0;515.0
13.0;519.0
14.0;523.0
15.0;529.0
0.0;535.0
1.0;533.0
2.0;529.0
3.0;526.0
4.0;519.0
5.0;509.0
6.0;501.0
7.0;497.0
8.0;491.0
9.0;483.0
10.0;473.0
11.0;462.0
12.0;458.0
13.0;460.0
14.0;464.0
15.0;476.0
0.0;498.0
1.0;516.0
2.0;528.0
3.0;537.0
4.0;534.0
5.0;534.0
6.0;531.0
7.0;530.0
8.0;525.0
9.0;518.0
10.0;513.0
11.0;511.0
12.0;509.0
13.0;507.0
14.0;508.0
15.0;509.0
0.0;511.0
1.0;515.0
2.0;517.0
3.0;519.0
4.0;526.0
5.0;532.0
6.0;534.0
7.0;535.0
8.0;536.0
9.0;539.0
10.0;541.0
11.0;540.0
12.0;538.0
13.0;535.0
14.0;535.0
15.0;538.0
0.0;542.0
1.0;551.0
2.0;566.0
3.0;585.0
4.0;606.0
5.0;624.0
6.0;646.0
7.0;670.0
8.0;689.0
9.0;701.0
10.0;705.0
11.0;708.0
12.0;709.0
13.0;711.0
14.0;711.0
15.0;710.0
0.0;704.0
1.0;701.0
2.0;697.0
3.0;698.0
4.0;702.0
5.0;706.0
6.0;703.0
7.0;693.0
8.0;682.0
9.0;657.0
10.0;621.0
11.0;579.0
12.0;531.0
13.0;477.0
14.0;427.0
15.0;394.0
0.0;371.0
1.0;350.0
2.0;339.0
3.0;342.0
4.0;348.0
5.0;357.0
6.0;371.0
7.0;385.0
8.0;394.0
9.0;403.0
10.0;397.0
11.0;391.0
12.0;389.0
13.0;394.0
14.0;404.0
15.0;408.0
0.0;409.0
1.0;414.0
2.0;420.0
3.0;426.0
4.0;432.0
5.0;438.0
6.0;449.0
7.0;463.0
8.0;471.0
9.0;473.0
10.0;480.0
11.0;489.0
12.0;494.0
13.0;495.0
14.0;491.0
15.0;484.0
0.0;482.0
1.0;487.0
2.0;493.0
3.0;495.0
4.0;494.0
5.0;491.0
6.0;490.0
7.0;493.0
8.0;499.0
9.0;505.0
10.0;510.0
11.0;515.0
12.0;518.0
13.0;518.0
14.0;521.0
15.0;527.0
0.0;527.0
1.0;525.0
2.0;525.0
3.0;524.0
4.0;519.0
5.0;517.0
6.0;518.0
7.0;519.0
8.0;518.0
9.0;521.0
10.0;521.0
11.0;520.0
12.0;519.0
13.0;519.0
14.0;515.0
15.0;510.0
0.0;504.0
1.0;500.0
2.0;496.0
3.0;495.0
4.0;494.0
5.0;497.0
6.0;505.0
7.0;513.0
8.0;519.0
9.0;524.0
10.0;531.0
11.0;533.0
12.0;529.0
13.0;525.0
14.0;521.0
15.0;521.0
0.0;525.0
1.0;527.0
2.0;528.0
3.0;526.0
4.0;525.0
5.0;526.0
6.0;527.0
7.0;532.0
8.0;537.0
9.0;543.0
10.0;548.0
11.0;549.0
12.0;553.0
13.0;554.0
14.0;554.0
15.0;550.0
0.0;544.0
1.0;537.0
2.0;529.0
3.0;523.0
4.0;522.0
5.0;524.0
6.0;526.0
7.0;529.0
8.0;531.0
9.0;532.0
10.0;537.0
11.0;547.0
12.0;553.0
13.0;556.0
14.0;556.0
15.0;555.0
0.0;552.0
1.0;548.0
2.0;544.0
3.0;539.0
4.0;536.0
5.0;540.0
6.0;543.0
7.0;549.0
8.0;558.0
9.0;565.0
10.0;568.0
11.0;570.0
12.0;572.0
13.0;572.0
14.0;571.0
15.0;569.0
0.0;561.0
1.0;555.0
2.0;549.0
3.0;542.0
4.0;535.0
5.0;534.0
6.0;539.0
7.0;539.0
8.0;537.0
9.0;545.0
10.0;549.0
11.0;553.0
12.0;557.0
13.0;556.0
14.0;548.0
15.0;538.0
0.0;533.0
1.0;533.0
2.0;533.0
3.0;532.0
4.0;529.0
5.0;527.0
6.0;528.0
7.0;528.0
8.0;531.0
9.0;536.0
10.0;542.0
11.0;548.0
12.0;555.0
13.0;562.0
14.0;565.0
15.0;565.0
0.0;567.0
1.0;566.0
2.0;562.0
3.0;558.0
4.0;552.0
5.0;546.0
6.0;546.0
7.0;550.0
8.0;554.0
9.0;558.0
10.0;566.0
11.0;572.0
12.0;576.0
13.0;579.0
14.0;578.0
15.0;577.0
0.0;578.0
1.0;584.0
2.0;584.0
3.0;575.0
4.0;567.0
5.0;559.0
6.0;551.0
7.0;551.0
8.0;548.0
9.0;548.0
10.0;555.0
11.0;560.0
12.0;564.0
13.0;568.0
14.0;571.0
15.0;569.0
0.0;563.0
1.0;556.0
2.0;553.0
3.0;547.0
4.0;542.0
5.0;540.0
6.0;536.0
7.0;533.0
8.0;531.0
9.0;528.0
10.0;528.0
11.0;532.0
12.0;537.0
13.0;542.0
14.0;547.0
15.0;551.0
0.0;551.0
1.0;547.0
2.0;542.0
3.0;537.0
4.0;532.0
5.0;526.0
6.0;520.0
7.0;515.0
8.0;512.0
9.0;510.0
10.0;507.0
11.0;505.0
12.0;509.0
13.0;511.0
14.0;510.0
15.0;512.0
0.0;515.0
1.0;516.0
2.0;515.0
3.0;514.0
4.0;510.0
5.0;500.0
6.0;493.0
7.0;486.0
8.0;481.0
9.0;483.0
10.0;489.0
11.0;494.0
12.0;492.0
13.0;489.0
14.0;490.0
15.0;486.0
0.0;486.0
1.0;490.0
2.0;492.0
3.0;491.0
4.0;487.0
5.0;480.0
6.0;476.0
7.0;473.0
8.0;466.0
9.0;464.0
10.0;470.0
11.0;472.0
12.0;470.0
13.0;469.0
14.0;468.0
15.0;471.0
0.0;477.0
1.0;485.0
2.0;487.0
3.0;481.0
4.0;479.0
5.0;478.0
6.0;473.0
7.0;472.0
8.0;470.0
9.0;466.0
10.0;461.0
11.0;463.0
12.0;463.0
13.0;459.0
14.0;458.0
15.0;460.0
0.0;462.0
1.0;468.0
2.0;474.0
3.0;477.0
4.0;480.0
5.0;484.0
6.0;483.0
7.0;479.0
8.0;475.0
9.0;470.0
10.0;466.0
11.0;463.0
12.0;465.0
13.0;468.0
14.0;471.0
15.0;481.0
0.0;488.0
1.0;489.0
2.0;491.0
3.0;494.0
4.0;496.0
5.0;493.0
6.0;486.0
7.0;480.0
8.0;476.0
9.0;479.0
10.0;476.0
11.0;476.0
12.0;476.0
13.0;474.0
14.0;470.0
15.0;471.0
0.0;479.0
1.0;491.0
2.0;497.0
3.0;505.0
4.0;514.0
5.0;516.0
6.0;509.0
7.0;499.0
8.0;485.0
9.0;461.0
10.0;445.0
11.0;438.0
12.0;432.0
13.0;428.0
14.0;425.0
15.0;427.0
0.0;433.0
1.0;441.0
2.0;453.0
3.0;464.0
4.0;472.0
5.0;473.0
6.0;474.0
7.0;474.0
8.0;470.0
9.0;464.0
10.0;463.0
11.0;461.0
12.0;460.0
13.0;462.0
14.0;466.0
15.0;469.0
0.0;473.0
1.0;480.0
2.0;487.0
3.0;488.0
4.0;487.0
5.0;485.0
6.0;483.0
7.0;482.0
8.0;478.0
9.0;473.0
10.0;469.0
11.0;466.0
12.0;463.0
13.0;463.0
14.0;462.0
15.0;466.0
0.0;467.0
1.0;469.0
2.0;474.0
3.0;477.0
4.0;480.0
5.0;487.0
6.0;495.0
7.0;500.0
8.0;498.0
9.0;495.0
10.0;489.0
11.0;480.0
12.0;475.0
13.0;471.0
14.0;471.0
15.0;474.0
0.0;473.0
1.0;476.0
2.0;482.0
3.0;492.0
4.0;500.0
5.0;503.0
6.0;508.0
7.0;514.0
8.0;515.0
9.0;515.0
10.0;514.0
11.0;510.0
12.0;504.0
13.0;500.0
14.0;494.0
15.0;493.0
0.0;497.0
1.0;497.0
2.0;496.0
3.0;496.0
4.0;494.0
5.0;498.0
6.0;503.0
7.0;506.0
8.0;506.0
9.0;505.0
10.0;502.0
11.0;496.0
12.0;490.0
13.0;490.0
14.0;490.0
15.0;489.0
0.0;491.0
1.0;495.0
2.0;499.0
3.0;504.0
4.0;499.0
5.0;492.0
6.0;488.0
7.0;492.0
8.0;495.0
9.0;496.0
10.0;499.0
11.0;501.0
12.0;497.0
13.0;490.0
14.0;485.0
15.0;482.0
0.0;482.0
1.0;481.0
2.0;480.0
3.0;479.0
4.0;481.0
5.0;487.0
6.0;492.0
7.0;496.0
8.0;500.0
9.0;504.0
10.0;506.0
11.0;510.0
12.0;508.0
13.0;502.0
14.0;495.0
15.0;491.0
0.0;489.0
1.0;486.0
2.0;486.0
3.0;488.0
4.0;496.0
5.0;504.0
6.0;509.0
7.0;515.0
8.0;523.0
9.0;528.0
10.0;528.0
11.0;524.0
12.0;515.0
13.0;505.0
14.0;487.0
15.0;477.0
0.0;472.0
1.0;467.0
2.0;471.0
3.0;473.0
4.0;479.0
5.0;487.0
6.0;499.0
7.0;508.0
8.0;513.0
9.0;512.0
10.0;508.0
11.0;506.0
12.0;507.0
13.0;507.0
14.0;506.0
15.0;503.0
0.0;502.0
1.0;507.0
2.0;507.0
3.0;503.0
4.0;501.0
5.0;502.0
6.0;508.0
7.0;508.0
8.0;506.0
9.0;503.0
10.0;501.0
11.0;506.0
12.0;509.0
13.0;513.0
14.0;514.0
15.0;510.0
0.0;508.0
1.0;508.0
2.0;511.0
3.0;519.0
4.0;524.0
5.0;519.0
6.0;516.0
7.0;517.0
8.0;522.0
9.0;525.0
10.0;529.0
11.0;532.0
12.0;533.0
13.0;536.0
14.0;542.0
15.0;540.0
0.0;537.0
1.0;536.0
2.0;523.0
3.0;501.0
4.0;484.0
5.0;475.0
6.0;481.0
7.0;489.0
8.0;495.0
9.0;502.0
10.0;503.0
11.0;504.0
12.0;508.0
13.0;505.0
14.0;498.0
15.0;494.0
0.0;492.0
1.0;492.0
2.0;492.0
3.0;488.0
4.0;485.0
5.0;484.0
6.0;481.0
7.0;480.0
8.0;479.0
9.0;485.0
10.0;491.0
11.0;500.0
12.0;507.0
13.0;505.0
14.0;502.0
15.0;503.0
0.0;503.0
1.0;497.0
2.0;495.0
3.0;492.0
4.0;487.0
5.0;482.0
6.0;481.0
7.0;482.0
8.0;484.0
9.0;489.0
10.0;495.0
11.0;498.0
12.0;503.0
13.0;506.0
14.0;505.0
15.0;504.0
0.0;505.0
1.0;506.0
2.0;506.0
3.0;500.0
4.0;497.0
5.0;500.0
6.0;499.0
7.0;497.0
8.0;502.0
9.0;512.0
10.0;519.0
11.0;521.0
12.0;522.0
13.0;527.0
14.0;528.0
15.0;524.0
0.0;518.0
1.0;510.0
2.0;500.0
3.0;489.0
4.0;485.0
5.0;483.0
6.0;478.0
7.0;480.0
8.0;480.0
9.0;481.0
10.0;489.0
11.0;495.0
12.0;500.0
13.0;502.0
14.0;505.0
15.0;504.0
0.0;497.0
1.0;493.0
2.0;489.0
3.0;488.0
4.0;487.0
5.0;483.0
6.0;481.0
7.0;481.0
8.0;483.0
9.0;486.0
10.0;487.0
11.0;492.0
12.0;498.0
13.0;503.0
14.0;508.0
15.0;511.0
0.0;511.0
1.0;510.0
2.0;509.0
3.0;504.0
4.0;498.0
5.0;497.0
6.0;498.0
7.0;498.0
8.0;501.0
9.0;509.0
10.0;519.0
11.0;529.0
12.0;542.0
13.0;556.0
14.0;568.0
15.0;579.0
0.0;589.0
1.0;604.0
2.0;613.0
3.0;615.0
4.0;619.0
5.0;624.0
6.0;631.0
7.0;641.0
8.0;649.0
9.0;661.0
10.0;664.0
11.0;667.0
12.0;666.0
13.0;665.0
14.0;666.0
15.0;671.0
0.0;674.0
1.0;676.0
2.0;666.0
3.0;654.0
4.0;638.0
5.0;620.0
6.0;598.0
7.0;576.0
8.0;548.0
9.0;520.0
10.0;493.0
11.0;464.0
12.0;431.0
13.0;409.0
14.0;392.0
15.0;379.0
0.0;371.0
1.0;366.0
2.0;361.0
3.0;362.0
4.0;361.0
5.0;359.0
6.0;358.0
7.0;365.0
8.0;369.0
9.0;374.0
10.0;380.0
11.0;387.0
12.0;394.0
13.0;407.0
14.0;418.0
15.0;431.0
0.0;443.0
1.0;454.0
2.0;462.0
3.0;466.0
4.0;470.0
5.0;475.0
6.0;475.0
7.0;471.0
8.0;468.0
9.0;468.0
10.0;472.0
11.0;476.0
12.0;480.0
13.0;484.0
14.0;488.0
15.0;494.0
0.0;500.0
1.0;506.0
2.0;512.0
3.0;515.0
4.0;514.0
5.0;511.0
6.0;508.0
7.0;501.0
8.0;492.0
9.0;486.0
10.0;483.0
11.0;484.0
12.0;492.0
13.0;494.0
14.0;500.0
15.0;512.0
0.0;521.0
1.0;526.0
2.0;531.0
3.0;538.0
4.0;538.0
5.0;540.0
6.0;536.0
7.0;534.0
8.0;524.0
9.0;515.0
10.0;508.0
11.0;502.0
12.0;498.0
13.0;503.0
14.0;508.0
15.0;507.0
0.0;509.0
1.0;512.0
2.0;508.0
3.0;499.0
4.0;492.0
5.0;490.0
6.0;495.0
7.0;495.0
8.0;495.0
9.0;497.0
10.0;500.0
11.0;504.0
12.0;507.0
13.0;510.0
14.0;503.0
15.0;498.0
0.0;503.0
1.0;510.0
2.0;516.0
3.0;525.0
4.0;532.0
5.0;535.0
6.0;533.0
7.0;531.0
8.0;526.0
9.0;524.0
10.0;521.0
11.0;515.0
12.0;505.0
13.0;496.0
14.0;496.0
15.0;502.0
0.0;510.0
1.0;520.0
2.0;528.0
3.0;534.0
4.0;537.0
5.0;542.0
6.0;548.0
7.0;550.0
8.0;546.0
9.0;543.0
10.0;541.0
11.0;539.0
12.0;535.0
13.0;531.0
14.0;528.0
15.0;525.0
0.0;525.0
1.0;528.0
2.0;533.0
3.0;539.0
4.0;546.0
5.0;553.0
6.0;557.0
7.0;558.0
8.0;560.0
9.0;557.0
10.0;550.0
11.0;542.0
12.0;538.0
13.0;534.0
14.0;533.0
15.0;534.0
0.0;535.0
1.0;535.0
2.0;541.0
3.0;549.0
4.0;552.0
5.0;554.0
6.0;555.0
7.0;552.0
8.0;546.0
9.0;544.0
10.0;542.0
11.0;538.0
12.0;539.0
13.0;541.0
14.0;541.0
15.0;540.0
0.0;540.0
1.0;540.0
2.0;539.0
3.0;540.0
4.0;544.0
5.0;547.0
6.0;555.0
7.0;560.0
8.0;564.0
9.0;566.0
10.0;566.0
11.0;567.0
12.0;563.0
13.0;560.0
14.0;555.0
15.0;551.0
0.0;550.0
1.0;545.0
2.0;543.0
3.0;550.0
4.0;555.0
5.0;559.0
6.0;565.0
7.0;570.0
8.0;572.0
9.0;572.0
10.0;573.0
11.0;573.0
12.0;568.0
13.0;563.0
14.0;564.0
15.0;562.0
0.0;558.0
1.0;556.0
2.0;555.0
3.0;555.0
4.0;559.0
5.0;563.0
6.0;568.0
7.0;570.0
8.0;572.0
9.0;574.0
10.0;572.0
11.0;571.0
12.0;572.0
13.0;568.0
14.0;566.0
15.0;561.0
0.0;547.0
1.0;537.0
2.0;534.0
3.0;524.0
4.0;516.0
5.0;514.0
6.0;522.0
7.0;534.0
8.0;548.0
9.0;556.0
10.0;556.0
11.0;546.0
12.0;535.0
13.0;527.0
14.0;521.0
15.0;519.0
0.0;514.0
1.0;510.0
2.0;509.0
3.0;510.0
4.0;508.0
5.0;512.0
6.0;515.0
7.0;515.0
8.0;518.0
9.0;523.0
10.0;520.0
11.0;519.0
12.0;523.0
13.0;525.0
14.0;523.0
15.0;517.0
0.0;511.0
1.0;506.0
2.0;499.0
3.0;496.0
4.0;497.0
5.0;493.0
6.0;488.0
7.0;487.0
8.0;487.0
9.0;489.0
10.0;491.0
11.0;495.0
12.0;498.0
13.0;500.0
14.0;498.0
15.0;495.0
0.0;492.0
1.0;489.0
2.0;487.0
3.0;485.0
4.0;484.0
5.0;483.0
6.0;481.0
7.0;483.0
8.0;489.0
9.0;495.0
10.0;502.0
11.0;504.0
12.0;505.0
13.0;505.0
14.0;502.0
15.0;495.0
0.0;485.0
1.0;476.0
2.0;466.0
3.0;457.0
4.0;452.0
5.0;454.0
6.0;458.0
7.0;463.0
8.0;475.0
9.0;484.0
10.0;492.0
11.0;498.0
12.0;498.0
13.0;500.0
14.0;504.0
15.0;505.0
0.0;500.0
1.0;494.0
2.0;492.0
3.0;486.0
4.0;473.0
5.0;466.0
6.0;467.0
7.0;472.0
8.0;473.0
9.0;473.0
10.0;476.0
11.0;481.0
12.0;485.0
13.0;489.0
14.0;492.0
15.0;496.0
0.0;493.0
1.0;486.0
2.0;480.0
3.0;474.0
4.0;471.0
5.0;469.0
6.0;469.0
7.0;469.0
8.0;470.0
9.0;474.0
10.0;479.0
11.0;482.0
12.0;488.0
13.0;492.0
14.0;496.0
15.0;500.0
0.0;502.0
1.0;499.0
2.0;493.0
3.0;492.0
4.0;489.0
5.0;491.0
6.0;490.0
7.0;492.0
8.0;494.0
9.0;498.0
10.0;504.0
11.0;507.0
12.0;506.0
13.0;505.0
14.0;506.0
15.0;506.0
0.0;505.0
1.0;505.0
2.0;503.0
3.0;495.0
4.0;491.0
5.0;487.0
6.0;483.0
7.0;481.0
8.0;480.0
9.0;483.0
10.0;485.0
11.0;488.0
12.0;496.0
13.0;501.0
14.0;503.0
15.0;509.0
0.0;511.0
1.0;510.0
2.0;501.0
3.0;490.0
4.0;482.0
5.0;482.0
6.0;479.0
7.0;479.0
8.0;473.0
9.0;467.0
10.0;466.0
11.0;476.0
12.0;485.0
13.0;485.0
14.0;487.0
15.0;493.0
0.0;498.0
1.0;500.0
2.0;501.0
3.0;501.0
4.0;497.0
5.0;493.0
6.0;490.0
7.0;491.0
8.0;493.0
9.0;492.0
10.0;493.0
11.0;497.0
12.0;504.0
13.0;508.0
14.0;507.0
15.0;506.0
0.0;508.0
1.0;511.0
2.0;513.0
3.0;514.0
4.0;509.0
5.0;504.0
6.0;499.0
7.0;492.0
8.0;487.0
9.0;488.0
10.0;492.0
11.0;497.0
12.0;499.0
13.0;503.0
14.0;510.0
15.0;516.0
0.0;524.0
1.0;528.0
2.0;527.0
3.0;526.0
4.0;526.0
5.0;524.0
6.0;520.0
7.0;511.0
8.0;506.0
9.0;503.0
10.0;500.0
11.0;497.0
12.0;495.0
13.0;498.0
14.0;502.0
15.0;507.0
0.0;515.0
1.0;521.0
2.0;526.0
3.0;527.0
4.0;531.0
5.0;532.0
6.0;527.0
7.0;518.0
8.0;511.0
9.0;502.0
10.0;492.0
11.0;488.0
12.0;485.0
13.0;485.0
14.0;491.0
15.0;499.0
0.0;506.0
1.0;517.0
2.0;524.0
3.0;522.0
4.0;526.0
5.0;526.0
6.0;521.0
7.0;513.0
8.0;504.0
9.0;497.0
10.0;492.0
11.0;491.0
12.0;492.0
13.0;493.0
14.0;495.0
15.0;499.0
0.0;503.0
1.0;509.0
2.0;515.0
3.0;520.0
4.0;523.0
5.0;525.0
6.0;527.0
7.0;523.0
8.0;518.0
9.0;514.0
10.0;507.0
11.0;503.0
12.0;506.0
13.0;509.0
14.0;508.0
15.0;511.0
0.0;516.0
1.0;520.0
2.0;524.0
3.0;526.0
4.0;529.0
5.0;531.0
6.0;532.0
7.0;530.0
8.0;520.0
9.0;513.0
10.0;508.0
11.0;502.0
12.0;500.0
13.0;496.0
14.0;496.0
15.0;502.0
0.0;508.0
1.0;512.0
2.0;511.0
3.0;513.0
4.0;519.0
5.0;521.0
6.0;520.0
7.0;519.0
8.0;519.0
9.0;519.0
10.0;519.0
11.0;515.0
12.0;508.0
13.0;502.0
14.0;494.0
15.0;487.0
0.0;489.0
1.0;496.0
2.0;505.0
3.0;515.0
4.0;521.0
5.0;525.0
6.0;528.0
7.0;531.0
8.0;529.0
9.0;522.0
10.0;511.0
11.0;499.0
12.0;492.0
13.0;491.0
14.0;494.0
15.0;497.0
0.0;502.0
1.0;510.0
2.0;514.0
3.0;519.0
4.0;524.0
5.0;519.0
6.0;509.0
7.0;502.0
8.0;501.0
9.0;501.0
10.0;499.0
11.0;497.0
12.0;491.0
13.0;488.0
14.0;486.0
15.0;483.0
0.0;477.0
1.0;473.0
2.0;476.0
3.0;479.0
4.0;482.0
5.0;491.0
6.0;499.0
7.0;504.0
8.0;506.0
9.0;501.0
10.0;492.0
11.0;487.0
12.0;486.0
13.0;484.0
14.0;483.0
15.0;482.0
0.0;482.0
1.0;486.0
2.0;489.0
3.0;494.0
4.0;500.0
5.0;503.0
6.0;505.0
7.0;509.0
8.0;512.0
9.0;514.0
10.0;515.0
11.0;514.0
12.0;508.0
13.0;507.0
14.0;502.0
15.0;497.0
0.0;495.0
1.0;494.0
2.0;497.0
3.0;498.0
4.0;500.0
5.0;504.0
6.0;511.0
7.0;517.0
8.0;523.0
9.0;525.0
10.0;526.0
11.0;523.0
12.0;518.0
13.0;511.0
14.0;506.0
15.0;501.0
0.0;497.0
1.0;504.0
2.0;510.0
3.0;511.0
4.0;518.0
5.0;527.0
6.0;536.0
7.0;545.0
8.0;554.0
9.0;562.0
10.0;567.0
11.0;575.0
12.0;581.0
13.0;589.0
14.0;597.0
15.0;608.0
0.0;620.0
1.0;633.0
2.0;644.0
3.0;645.0
4.0;639.0
5.0;635.0
6.0;636.0
7.0;634.0
8.0;635.0
9.0;635.0
10.0;633.0
11.0;629.0
12.0;617.0
13.0;605.0
14.0;592.0
15.0;575.0
0.0;560.0
1.0;547.0
2.0;534.0
3.0;517.0
4.0;497.0
5.0;477.0
6.0;456.0
7.0;438.0
8.0;424.0
9.0;411.0
10.0;398.0
11.0;389.0
12.0;386.0
13.0;387.0
14.0;386.0
15.0;384.0
0.0;384.0
1.0;387.0
2.0;389.0
3.0;395.0
4.0;400.0
5.0;409.0
6.0;422.0
7.0;433.0
8.0;442.0
9.0;456.0
10.0;467.0
11.0;470.0
12.0;468.0
13.0;473.0
14.0;473.0
15.0;467.0
0.0;466.0
1.0;469.0
2.0;469.0
3.0;471.0
4.0;476.0
5.0;480.0
6.0;489.0
7.0;503.0
8.0;512.0
9.0;511.0
10.0;512.0
11.0;514.0
12.0;512.0
13.0;509.0
14.0;504.0
15.0;499.0
0.0;500.0
1.0;502.0
2.0;502.0
3.0;505.0
4.0;510.0
5.0;508.0
6.0;502.0
7.0;493.0
8.0;488.0
9.0;491.0
10.0;497.0
11.0;507.0
12.0;514.0
13.0;517.0
14.0;520.0
15.0;522.0
0.0;519.0
1.0;517.0
2.0;515.0
3.0;511.0
4.0;504.0
5.0;501.0
6.0;501.0
7.0;501.0
8.0;504.0
9.0;513.0
10.0;519.0
11.0;526.0
12.0;534.0
13.0;540.0
14.0;538.0
15.0;535.0
0.0;531.0
1.0;521.0
2.0;511.0
3.0;510.0
4.0;510.0
5.0;507.0
6.0;506.0
7.0;509.0
8.0;515.0
9.0;520.0
10.0;525.0
11.0;530.0
12.0;536.0
13.0;543.0
14.0;548.0
15.0;550.0
0.0;551.0
1.0;547.0
2.0;541.0
3.0;535.0
4.0;527.0
5.0;519.0
6.0;516.0
7.0;515.0
8.0;514.0
9.0;512.0
10.0;513.0
11.0;518.0
12.0;519.0
13.0;521.0
14.0;521.0
15.0;519.0
0.0;516.0
1.0;515.0
2.0;512.0
3.0;507.0
4.0;502.0
5.0;500.0
6.0;499.0
7.0;502.0
8.0;508.0
9.0;518.0
10.0;529.0
11.0;539.0
12.0;547.0
13.0;553.0
14.0;557.0
15.0;558.0
0.0;560.0
1.0;554.0
2.0;537.0
3.0;522.0
4.0;510.0
5.0;503.0
6.0;504.0
7.0;509.0
8.0;514.0
9.0;513.0
10.0;511.0
11.0;513.0
12.0;523.0
13.0;531.0
14.0;530.0
15.0;529.0
0.0;528.0
1.0;526.0
2.0;524.0
3.0;524.0
4.0;519.0
5.0;513.0
6.0;511.0
7.0;513.0
8.0;513.0
9.0;513.0
10.0;517.0
11.0;525.0
12.0;531.0
13.0;535.0
14.0;538.0
15.0;542.0
0.0;545.0
1.0;546.0
2.0;545.0
3.0;542.0
4.0;538.0
5.0;536.0
6.0;535.0
7.0;536.0
8.0;534.0
9.0;533.0
10.0;533.0
11.0;533.0
12.0;534.0
13.0;537.0
14.0;544.0
15.0;550.0
0.0;551.0
1.0;555.0
2.0;555.0
3.0;549.0
4.0;545.0
5.0;539.0
6.0;536.0
7.0;537.0
8.0;541.0
9.0;547.0
10.0;555.0
11.0;560.0
12.0;554.0
13.0;546.0
14.0;542.0
15.0;540.0
0.0;545.0
1.0;547.0
2.0;545.0
3.0;542.0
4.0;536.0
5.0;527.0
6.0;527.0
7.0;530.0
8.0;529.0
9.0;524.0
10.0;522.0
11.0;521.0
12.0;521.0
13.0;525.0
14.0;530.0
15.0;531.0
0.0;532.0
1.0;536.0
2.0;540.0
3.0;540.0
4.0;538.0
5.0;534.0
6.0;526.0
7.0;520.0
8.0;517.0
9.0;514.0
10.0;514.0
11.0;511.0
12.0;512.0
13.0;510.0
14.0;508.0
15.0;510.0
0.0;509.0
1.0;510.0
2.0;511.0
3.0;512.0
4.0;514.0
5.0;514.0
6.0;511.0
7.0;507.0
8.0;505.0
9.0;503.0
10.0;500.0
11.0;496.0
12.0;490.0
13.0;490.0
14.0;493.0
15.0;495.0
0.0;496.0
1.0;494.0
2.0;489.0
3.0;482.0
4.0;474.0
5.0;472.0
6.0;476.0
7.0;475.0
8.0;472.0
9.0;467.0
10.0;462.0
11.0;460.0
12.0;460.0
13.0;463.0
14.0;467.0
15.0;472.0
0.0;479.0
1.0;485.0
2.0;490.0
3.0;493.0
4.0;495.0
5.0;494.0
6.0;494.0
7.0;494.0
8.0;489.0
9.0;483.0
10.0;481.0
11.0;475.0
12.0;469.0
13.0;469.0
14.0;471.0
15.0;473.0
0.0;478.0
1.0;484.0
2.0;489.0
3.0;497.0
4.0;503.0
5.0;502.0
6.0;499.0
7.0;495.0
8.0;491.0
9.0;488.0
10.0;489.0
11.0;489.0
12.0;483.0
13.0;477.0
14.0;473.0
15.0;470.0
0.0;474.0
1.0;486.0
2.0;487.0
3.0;490.0
4.0;493.0
5.0;497.0
6.0;496.0
7.0;495.0
8.0;495.0
9.0;495.0
10.0;490.0
11.0;484.0
12.0;484.0
13.0;481.0
14.0;477.0
15.0;475.0
0.0;474.0
1.0;479.0
2.0;487.0
3.0;491.0
4.0;492.0
5.0;495.0
6.0;500.0
7.0;501.0
8.0;504.0
9.0;508.0
10.0;509.0
11.0;508.0
12.0;506.0
13.0;497.0
14.0;483.0
15.0;472.0
0.0;470.0
1.0;471.0
2.0;477.0
3.0;478.0
4.0;476.0
5.0;478.0
6.0;481.0
7.0;483.0
8.0;485.0
9.0;488.0
10.0;490.0
11.0;486.0
12.0;479.0
13.0;472.0
14.0;471.0
15.0;471.0
0.0;472.0
1.0;474.0
2.0;476.0
3.0;479.0
4.0;485.0
5.0;488.0
6.0;493.0
7.0;498.0
8.0;500.0
9.0;502.0
10.0;504.0
11.0;501.0
12.0;497.0
13.0;493.0
14.0;490.0
15.0;490.0
0.0;487.0
1.0;486.0
2.0;487.0
3.0;488.0
4.0;491.0
5.0;495.0
6.0;498.0
7.0;501.0
8.0;505.0
9.0;505.0
10.0;503.0
11.0;503.0
12.0;502.0
13.0;499.0
14.0;496.0
15.0;493.0
0.0;492.0
1.0;490.0
2.0;487.0
3.0;493.0
4.0;499.0
5.0;504.0
6.0;507.0
7.0;512.0
8.0;519.0
9.0;518.0
10.0;508.0
11.0;503.0
12.0;501.0
13.0;497.0
14.0;487.0
15.0;483.0
0.0;485.0
1.0;480.0
2.0;480.0
3.0;487.0
4.0;487.0
5.0;487.0
6.0;492.0
7.0;499.0
8.0;504.0
9.0;511.0
10.0;514.0
11.0;514.0
12.0;510.0
13.0;505.0
14.0;501.0
15.0;496.0
0.0;493.0
1.0;488.0
2.0;487.0
3.0;489.0
4.0;489.0
5.0;491.0
6.0;497.0
7.0;503.0
8.0;507.0
9.0;514.0
10.0;519.0
11.0;517.0
12.0;515.0
13.0;515.0
14.0;511.0
15.0;506.0
0.0;502.0
1.0;496.0
2.0;495.0
3.0;494.0
4.0;494.0
5.0;494.0
6.0;497.0
7.0;504.0
8.0;508.0
9.0;514.0
10.0;518.0
11.0;523.0
12.0;522.0
13.0;521.0
14.0;520.0
15.0;515.0
0.0;511.0
1.0;507.0
2.0;501.0
3.0;495.0
4.0;494.0
5.0;492.0
6.0;494.0
7.0;502.0
8.0;511.0
9.0;513.0
10.0;506.0
11.0;502.0
12.0;503.0
13.0;505.0
14.0;508.0
15.0;509.0
0.0;506.0
1.0;498.0
2.0;487.0
3.0;481.0
4.0;481.0
5.0;484.0
6.0;487.0
7.0;488.0
8.0;491.0
9.0;501.0
10.0;508.0
11.0;512.0
12.0;517.0
13.0;517.0
14.0;514.0
15.0;514.0
0.0;514.0
1.0;510.0
2.0;509.0
3.0;504.0
4.0;499.0
5.0;498.0
6.0;499.0
7.0;501.0
8.0;504.0
9.0;510.0
10.0;514.0
11.0;522.0
12.0;532.0
13.0;536.0
14.0;532.0
15.0;529.0
0.0;528.0
1.0;523.0
2.0;518.0
3.0;513.0
4.0;506.0
5.0;500.0
6.0;497.0
7.0;500.0
8.0;509.0
9.0;521.0
10.0;523.0
11.0;523.0
12.0;524.0
13.0;525.0
14.0;525.0
15.0;527.0
0.0;526.0
1.0;519.0
2.0;509.0
3.0;502.0
4.0;500.0
5.0;499.0
6.0;499.0
7.0;500.0
8.0;500.0
9.0;503.0
10.0;511.0
11.0;516.0
12.0;522.0
13.0;527.0
14.0;531.0
15.0;533.0
0.0;532.0
1.0;531.0
2.0;528.0
3.0;524.0
4.0;518.0
5.0;513.0
6.0;511.0
7.0;511.0
8.0;511.0
9.0;510.0
10.0;511.0
11.0;516.0
12.0;521.0
13.0;527.0
14.0;527.0
15.0;528.0
0.0;528.0
1.0;526.0
2.0;524.0
3.0;519.0
4.0;513.0
5.0;509.0
6.0;503.0
7.0;499.0
8.0;499.0
9.0;505.0
10.0;510.0
11.0;509.0
12.0;512.0
13.0;514.0
14.0;512.0
15.0;505.0
0.0;499.0
1.0;493.0
2.0;488.0
3.0;483.0
4.0;483.0
5.0;483.0
6.0;478.0
7.0;477.0
8.0;479.0
9.0;478.0
10.0;478.0
11.0;487.0
12.0;492.0
13.0;503.0
14.0;510.0
15.0;517.0
0.0;521.0
1.0;519.0
2.0;520.0
3.0;517.0
4.0;512.0
5.0;506.0
6.0;497.0
7.0;488.0
8.0;484.0
9.0;483.0
10.0;486.0
11.0;487.0
12.0;488.0
13.0;492.0
14.0;497.0
15.0;503.0
0.0;507.0
1.0;512.0
2.0;513.0
3.0;512.0
4.0;513.0
5.0;511.0
6.0;505.0
7.0;502.0
8.0;498.0
9.0;495.0
10.0;492.0
11.0;493.0
12.0;496.0
13.0;499.0
14.0;507.0
15.0;511.0
0.0;515.0
1.0;519.0
2.0;518.0
3.0;517.0
4.0;518.0
5.0;516.0
6.0;513.0
7.0;508.0
8.0;504.0
9.0;499.0
10.0;495.0
11.0;494.0
12.0;495.0
13.0;498.0
14.0;501.0
15.0;506.0
0.0;515.0
1.0;519.0
2.0;523.0
3.0;522.0
4.0;520.0
5.0;523.0
6.0;523.0
7.0;522.0
8.0;519.0
9.0;515.0
10.0;513.0
11.0;516.0
12.0;521.0
13.0;524.0
14.0;528.0
15.0;535.0
0.0;544.0
1.0;553.0
2.0;564.0
3.0;577.0
4.0;588.0
5.0;592.0
6.0;597.0
7.0;604.0
8.0;612.0
9.0;622.0
10.0;630.0
11.0;632.0
12.0;637.0
13.0;647.0
14.0;658.0
15.0;658.0
0.0;652.0
1.0;648.0
2.0;649.0
3.0;638.0
4.0;624.0
5.0;615.0
6.0;611.0
7.0;607.0
8.0;597.0
9.0;583.0
10.0;566.0
11.0;543.0
12.0;522.0
13.0;503.0
14.0;481.0
15.0;460.0
0.0;447.0
1.0;435.0
2.0;423.0
3.0;415.0
4.0;415.0
5.0;413.0
6.0;405.0
7.0;398.0
8.0;394.0
9.0;394.0
10.0;396.0
11.0;400.0
12.0;400.0
13.0;403.0
14.0;409.0
15.0;415.0
0.0;419.0
1.0;425.0
2.0;433.0
3.0;444.0
4.0;456.0
5.0;466.0
6.0;472.0
7.0;476.0
8.0;479.0
9.0;479.0
10.0;477.0
11.0;475.0
12.0;472.0
13.0;471.0
14.0;475.0
15.0;479.0
0.0;481.0
1.0;486.0
2.0;494.0
3.0;501.0
4.0;509.0
5.0;516.0
6.0;521.0
7.0;525.0
8.0;524.0
9.0;525.0
10.0;527.0
11.0;530.0
12.0;531.0
13.0;519.0
14.0;494.0
15.0;481.0
0.0;476.0
1.0;472.0
2.0;476.0
3.0;487.0
4.0;502.0
5.0;508.0
6.0;508.0
7.0;510.0
8.0;514.0
9.0;513.0
10.0;511.0
11.0;512.0
12.0;509.0
13.0;506.0
14.0;509.0
15.0;513.0
0.0;514.0
1.0;515.0
2.0;513.0
3.0;518.0
4.0;518.0
5.0;519.0
6.0;521.0
7.0;521.0
8.0;519.0
9.0;519.0
10.0;520.0
11.0;519.0
12.0;518.0
13.0;514.0
14.0;506.0
15.0;501.0
0.0;500.0
1.0;501.0
2.0;504.0
3.0;510.0
4.0;521.0
5.0;529.0
6.0;537.0
7.0;543.0
8.0;546.0
9.0;545.0
10.0;540.0
11.0;536.0
12.0;535.0
13.0;527.0
14.0;521.0
15.0;518.0
0.0;512.0
1.0;508.0
2.0;503.0
3.0;500.0
4.0;502.0
5.0;506.0
6.0;513.0
7.0;522.0
8.0;523.0
9.0;524.0
10.0;528.0
11.0;528.0
12.0;523.0
13.0;518.0
14.0;513.0
15.0;509.0
0.0;504.0
1.0;502.0
2.0;501.0
3.0;501.0
4.0;504.0
5.0;511.0
6.0;513.0
7.0;521.0
8.0;529.0
9.0;536.0
10.0;540.0
11.0;539.0
12.0;536.0
13.0;530.0
14.0;525.0
15.0;521.0
0.0;516.0
1.0;512.0
2.0;513.0
3.0;517.0
4.0;521.0
5.0;524.0
6.0;536.0
7.0;547.0
8.0;551.0
9.0;554.0
10.0;553.0
11.0;551.0
12.0;544.0
13.0;535.0
14.0;526.0
15.0;518.0
0.0;510.0
1.0;504.0
2.0;507.0
3.0;509.0
4.0;511.0
5.0;515.0
6.0;529.0
7.0;542.0
8.0;543.0
9.0;542.0
10.0;544.0
11.0;548.0
12.0;550.0
13.0;553.0
14.0;553.0
15.0;534.0
0.0;517.0
1.0;510.0
2.0;506.0
3.0;511.0
4.0;517.0
5.0;526.0
6.0;536.0
7.0;539.0
8.0;534.0
9.0;534.0
10.0;530.0
11.0;522.0
12.0;523.0
13.0;527.0
14.0;526.0
15.0;518.0
0.0;511.0
1.0;511.0
2.0;509.0
3.0;507.0
4.0;503.0
5.0;502.0
6.0;506.0
7.0;513.0
8.0;523.0
9.0;530.0
10.0;539.0
11.0;548.0
12.0;553.0
13.0;550.0
14.0;539.0
15.0;528.0
0.0;526.0
1.0;524.0
2.0;523.0
3.0;519.0
4.0;515.0
5.0;513.0
6.0;512.0
7.0;513.0
8.0;514.0
9.0;517.0
10.0;522.0
11.0;527.0
12.0;529.0
13.0;528.0
14.0;530.0
15.0;532.0
0.0;534.0
1.0;529.0
2.0;523.0
3.0;518.0
4.0;513.0
5.0;509.0
6.0;505.0
7.0;505.0
8.0;504.0
9.0;504.0
10.0;506.0
11.0;510.0
12.0;513.0
13.0;515.0
14.0;516.0
15.0;516.0
0.0;516.0
1.0;508.0
2.0;501.0
3.0;496.0
4.0;491.0
5.0;484.0
6.0;482.0
7.0;480.0
8.0;482.0
9.0;487.0
10.0;494.0
11.0;499.0
12.0;503.0
13.0;505.0
14.0;507.0
15.0;505.0
0.0;499.0
1.0;489.0
2.0;478.0
3.0;469.0
4.0;466.0
5.0;463.0
6.0;467.0
7.0;480.0
8.0;479.0
9.0;479.0
10.0;482.0
11.0;485.0
12.0;484.0
13.0;483.0
14.0;485.0
15.0;491.0
0.0;496.0
1.0;496.0
2.0;493.0
3.0;486.0
4.0;478.0
5.0;472.0
6.0;468.0
7.0;465.0
8.0;466.0
9.0;465.0
10.0;465.0
11.0;472.0
12.0;479.0
13.0;485.0
14.0;494.0
15.0;501.0
0.0;505.0
1.0;505.0
2.0;504.0
3.0;501.0
4.0;492.0
5.0;484.0
6.0;477.0
7.0;474.0
8.0;474.0
9.0;476.0
10.0;475.0
11.0;478.0
12.0;482.0
13.0;487.0
14.0;494.0
15.0;500.0
0.0;504.0
1.0;506.0
2.0;507.0
3.0;507.0
4.0;501.0
5.0;495.0
6.0;494.0
7.0;490.0
8.0;489.0
9.0;492.0
10.0;492.0
11.0;490.0
12.0;488.0
13.0;491.0
14.0;494.0
15.0;499.0
0.0;504.0
1.0;511.0
2.0;516.0
3.0;513.0
4.0;499.0
5.0;482.0
6.0;472.0
7.0;466.0
8.0;463.0
9.0;460.0
10.0;460.0
11.0;465.0
12.0;470.0
13.0;481.0
14.0;489.0
15.0;497.0
0.0;505.0
1.0;510.0
2.0;508.0
3.0;507.0
4.0;510.0
5.0;509.0
6.0;503.0
7.0;499.0
8.0;493.0
9.0;486.0
10.0;481.0
11.0;480.0
12.0;482.0
13.0;485.0
14.0;490.0
15.0;495.0
0.0;499.0
1.0;504.0
2.0;506.0
3.0;505.0
4.0;505.0
5.0;502.0
6.0;498.0
7.0;493.0
8.0;489.0
9.0;484.0
10.0;481.0
11.0;480.0
12.0;481.0
13.0;483.0
14.0;487.0
15.0;492.0
0.0;498.0
1.0;504.0
2.0;512.0
3.0;515.0
4.0;516.0
5.0;520.0
6.0;525.0
7.0;524.0
8.0;520.0
9.0;519.0
10.0;512.0
11.0;503.0
12.0;500.0
13.0;502.0
14.0;507.0
15.0;515.0
0.0;518.0
1.0;511.0
2.0;499.0
3.0;489.0
4.0;485.0
5.0;487.0
6.0;489.0
7.0;492.0
8.0;495.0
9.0;492.0
10.0;491.0
11.0;486.0
12.0;487.0
13.0;483.0
14.0;483.0
15.0;484.0
0.0;491.0
1.0;494.0
2.0;492.0
3.0;493.0
4.0;497.0
5.0;502.0
6.0;501.0
7.0;498.0
8.0;494.0
9.0;486.0
10.0;483.0
11.0;485.0
12.0;487.0
13.0;487.0
14.0;492.0
15.0;495.0
0.0;501.0
1.0;504.0
2.0;502.0
3.0;503.0
4.0;507.0
5.0;508.0
6.0;508.0
7.0;504.0
8.0;499.0
9.0;496.0
10.0;491.0
11.0;490.0
12.0;490.0
13.0;485.0
14.0;486.0
15.0;486.0
0.0;489.0
1.0;493.0
2.0;497.0
3.0;497.0
4.0;501.0
5.0;503.0
6.0;505.0
7.0;504.0
8.0;503.0
9.0;500.0
10.0;496.0
11.0;489.0
12.0;487.0
13.0;486.0
14.0;484.0
15.0;486.0
0.0;486.0
1.0;486.0
2.0;484.0
3.0;487.0
4.0;497.0
5.0;512.0
6.0;527.0
7.0;534.0
8.0;535.0
9.0;527.0
10.0;499.0
11.0;467.0
12.0;446.0
13.0;434.0
14.0;433.0
15.0;445.0
0.0;455.0
1.0;470.0
2.0;488.0
3.0;505.0
4.0;516.0
5.0;517.0
6.0;517.0
7.0;503.0
8.0;489.0
9.0;482.0
10.0;486.0
11.0;489.0
12.0;491.0
13.0;490.0
14.0;484.0
15.0;479.0
0.0;478.0
1.0;477.0
2.0;480.0
3.0;487.0
4.0;494.0
5.0;499.0
6.0;502.0
7.0;507.0
8.0;510.0
9.0;511.0
10.0;511.0
11.0;511.0
12.0;506.0
13.0;501.0
14.0;499.0
15.0;498.0
0.0;495.0
1.0;494.0
2.0;495.0
3.0;494.0
4.0;498.0
5.0;503.0
6.0;509.0
7.0;517.0
8.0;523.0
9.0;524.0
10.0;520.0
11.0;517.0
12.0;515.0
13.0;509.0
14.0;506.0
15.0;502.0
0.0;497.0
1.0;497.0
2.0;499.0
3.0;500.0
4.0;502.0
5.0;508.0
6.0;514.0
7.0;520.0
8.0;527.0
9.0;530.0
10.0;532.0
11.0;533.0
12.0;533.0
13.0;529.0
14.0;525.0
15.0;520.0
0.0;517.0
1.0;513.0
2.0;511.0
3.0;508.0
4.0;506.0
5.0;505.0
6.0;507.0
7.0;511.0
8.0;516.0
9.0;526.0
10.0;535.0
11.0;534.0
12.0;533.0
13.0;525.0
14.0;512.0
15.0;498.0
0.0;486.0
1.0;481.0
2.0;480.0
3.0;476.0
4.0;476.0
5.0;481.0
6.0;484.0
7.0;486.0
8.0;491.0
9.0;496.0
10.0;501.0
11.0;507.0
12.0;511.0
13.0;514.0
14.0;513.0
15.0;507.0
0.0;495.0
1.0;488.0
2.0;486.0
3.0;486.0
4.0;489.0
5.0;492.0
6.0;496.0
7.0;503.0
8.0;509.0
9.0;513.0
10.0;518.0
11.0;520.0
12.0;519.0
13.0;520.0
14.0;520.0
15.0;516.0
0.0;509.0
1.0;501.0
2.0;496.0
3.0;495.0
4.0;498.0
5.0;498.0
6.0;498.0
7.0;500.0
8.0;505.0
9.0;512.0
10.0;518.0
11.0;523.0
12.0;528.0
13.0;531.0
14.0;533.0
15.0;532.0
0.0;528.0
1.0;526.0
2.0;525.0
3.0;519.0
4.0;513.0
5.0;511.0
6.0;512.0
7.0;510.0
8.0;514.0
9.0;526.0
10.0;534.0
11.0;539.0
12.0;544.0
13.0;546.0
14.0;539.0
15.0;531.0
0.0;527.0
1.0;525.0
2.0;521.0
3.0;510.0
4.0;501.0
5.0;501.0
6.0;506.0
7.0;513.0
8.0;517.0
9.0;511.0
10.0;502.0
11.0;496.0
12.0;497.0
13.0;499.0
14.0;508.0
15.0;520.0
0.0;529.0
1.0;534.0
2.0;537.0
3.0;537.0
4.0;537.0
5.0;543.0
6.0;552.0
7.0;562.0
8.0;573.0
9.0;583.0
10.0;598.0
11.0;612.0
12.0;627.0
13.0;644.0
14.0;659.0
15.0;667.0
0.0;671.0
1.0;672.0
2.0;670.0
3.0;668.0
4.0;667.0
5.0;664.0
6.0;661.0
7.0;655.0
8.0;647.0
9.0;637.0
10.0;630.0
11.0;624.0
12.0;616.0
13.0;609.0
14.0;601.0
15.0;589.0
0.0;571.0
1.0;551.0
2.0;528.0
3.0;502.0
4.0;475.0
5.0;450.0
6.0;426.0
7.0;408.0
8.0;398.0
9.0;395.0
10.0;394.0
11.0;397.0
12.0;402.0
13.0;408.0
14.0;415.0
15.0;421.0
0.0;428.0
1.0;435.0
2.0;440.0
3.0;452.0
4.0;453.0
5.0;450.0
6.0;453.0
7.0;455.0
8.0;457.0
9.0;459.0
10.0;452.0
11.0;452.0
12.0;463.0
13.0;467.0
14.0;464.0
15.0;467.0
0.0;478.0
1.0;479.0
2.0;477.0
3.0;472.0
4.0;463.0
5.0;463.0
6.0;471.0
7.0;476.0
8.0;479.0
9.0;483.0
10.0;491.0
11.0;493.0
12.0;499.0
13.0;506.0
14.0;509.0
15.0;514.0
0.0;520.0
1.0;524.0
2.0;523.0
3.0;526.0
4.0;528.0
5.0;526.0
6.0;521.0
7.0;515.0
8.0;508.0
9.0;502.0
10.0;503.0
11.0;508.0
12.0;511.0
13.0;515.0
14.0;522.0
15.0;527.0
0.0;534.0
1.0;539.0
2.0;539.0
3.0;536.0
4.0;530.0
5.0;526.0
6.0;521.0
7.0;520.0
8.0;520.0
9.0;518.0
10.0;517.0
11.0;515.0
12.0;512.0
13.0;512.0
14.0;517.0
15.0;524.0
0.0;530.0
1.0;535.0
2.0;538.0
3.0;537.0
4.0;534.0
5.0;533.0
6.0;534.0
7.0;529.0
8.0;519.0
9.0;516.0
10.0;516.0
11.0;518.0
12.0;525.0
13.0;526.0
14.0;530.0
15.0;528.0
0.0;520.0
1.0;518.0
2.0;517.0
3.0;521.0
4.0;521.0
5.0;522.0
6.0;519.0
7.0;521.0
8.0;518.0
9.0;503.0
10.0;494.0
11.0;494.0
12.0;500.0
13.0;503.0
14.0;504.0
15.0;507.0
0.0;513.0
1.0;520.0
2.0;523.0
3.0;527.0
4.0;529.0
5.0;527.0
6.0;525.0
7.0;522.0
8.0;518.0
9.0;513.0
10.0;511.0
11.0;508.0
12.0;507.0
13.0;505.0
14.0;505.0
15.0;508.0
0.0;515.0
1.0;524.0
2.0;530.0
3.0;537.0
4.0;543.0
5.0;543.0
6.0;542.0
7.0;538.0
8.0;532.0
9.0;527.0
10.0;527.0
11.0;526.0
12.0;525.0
13.0;523.0
14.0;522.0
15.0;524.0
0.0;529.0
1.0;535.0
2.0;537.0
3.0;538.0
4.0;538.0
5.0;540.0
6.0;537.0
7.0;539.0
8.0;540.0
9.0;535.0
10.0;528.0
11.0;525.0
12.0;522.0
13.0;520.0
14.0;521.0
15.0;524.0
0.0;527.0
1.0;529.0
2.0;529.0
3.0;531.0
4.0;530.0
5.0;534.0
6.0;539.0
7.0;543.0
8.0;544.0
9.0;544.0
10.0;539.0
11.0;526.0
12.0;516.0
13.0;515.0
14.0;518.0
15.0;521.0
0.0;530.0
1.0;528.0
2.0;525.0
3.0;527.0
4.0;531.0
5.0;536.0
6.0;538.0
7.0;537.0
8.0;539.0
9.0;539.0
10.0;536.0
11.0;533.0
12.0;528.0
13.0;523.0
14.0;515.0
15.0;512.0
0.0;511.0
1.0;512.0
2.0;516.0
3.0;523.0
4.0;530.0
5.0;535.0
6.0;537.0
7.0;540.0
8.0;537.0
9.0;532.0
10.0;529.0
11.0;524.0
12.0;519.0
13.0;515.0
14.0;511.0
15.0;507.0
0.0;505.0
1.0;503.0
2.0;502.0
3.0;504.0
4.0;510.0
5.0;513.0
6.0;519.0
7.0;523.0
8.0;529.0
9.0;532.0
10.0;533.0
11.0;533.0
12.0;528.0
13.0;521.0
14.0;510.0
15.0;501.0
0.0;495.0
1.0;490.0
2.0;483.0
3.0;479.0
4.0;482.0
5.0;483.0
6.0;484.0
7.0;490.0
8.0;496.0
9.0;497.0
10.0;499.0
11.0;496.0
12.0;487.0
13.0;480.0
14.0;473.0
15.0;466.0
0.0;460.0
1.0;463.0
2.0;467.0
3.0;472.0
4.0;476.0
5.0;480.0
6.0;481.0
7.0;481.0
8.0;485.0
9.0;491.0
10.0;488.0
11.0;485.0
12.0;483.0
13.0;477.0
14.0;472.0
15.0;471.0
0.0;469.0
1.0;466.0
2.0;464.0
3.0;464.0
4.0;467.0
5.0;471.0
6.0;479.0
7.0;484.0
8.0;490.0
9.0;494.0
10.0;495.0
11.0;495.0
12.0;494.0
13.0;492.0
14.0;487.0
15.0;481.0
0.0;475.0
1.0;471.0
2.0;470.0
3.0;472.0
4.0;474.0
5.0;476.0
6.0;481.0
7.0;486.0
8.0;487.0
9.0;491.0
10.0;495.0
11.0;499.0
12.0;502.0
13.0;498.0
14.0;493.0
15.0;489.0
0.0;485.0
1.0;481.0
2.0;479.0
3.0;479.0
4.0;480.0
5.0;481.0
6.0;484.0
7.0;487.0
8.0;493.0
9.0;492.0
10.0;493.0
11.0;498.0
12.0;497.0
13.0;495.0
14.0;496.0
15.0;495.0
0.0;496.0
1.0;499.0
2.0;497.0
3.0;488.0
4.0;481.0
5.0;485.0
6.0;484.0
7.0;481.0
8.0;483.0
9.0;483.0
10.0;486.0
11.0;488.0
12.0;488.0
13.0;486.0
14.0;487.0
15.0;485.0
0.0;481.0
1.0;477.0
2.0;473.0
3.0;471.0
4.0;473.0
5.0;476.0
6.0;479.0
7.0;482.0
8.0;487.0
9.0;495.0
10.0;502.0
11.0;508.0
12.0;514.0
13.0;517.0
14.0;516.0
15.0;513.0
0.0;511.0
1.0;507.0
2.0;499.0
3.0;493.0
4.0;488.0
5.0;485.0
6.0;487.0
7.0;492.0
8.0;498.0
9.0;502.0
10.0;505.0
11.0;507.0
12.0;510.0
13.0;513.0
14.0;513.0
15.0;510.0
0.0;508.0
1.0;504.0
2.0;501.0
3.0;499.0
4.0;494.0
5.0;491.0
6.0;489.0
7.0;490.0
8.0;492.0
9.0;495.0
10.0;500.0
11.0;505.0
12.0;510.0
13.0;516.0
14.0;519.0
15.0;519.0
0.0;518.0
1.0;517.0
2.0;515.0
3.0;512.0
4.0;510.0
5.0;509.0
6.0;512.0
7.0;512.0
8.0;512.0
9.0;507.0
10.0;503.0
11.0;501.0
12.0;505.0
13.0;510.0
14.0;516.0
15.0;518.0
0.0;516.0
1.0;515.0
2.0;515.0
3.0;511.0
4.0;501.0
5.0;494.0
6.0;487.0
7.0;478.0
8.0;473.0
9.0;476.0
10.0;480.0
11.0;481.0
12.0;486.0
13.0;492.0
14.0;499.0
15.0;509.0
0.0;514.0
1.0;517.0
2.0;518.0
3.0;513.0
4.0;504.0
5.0;488.0
6.0;473.0
7.0;467.0
8.0;474.0
9.0;483.0
10.0;488.0
11.0;492.0
12.0;495.0
13.0;501.0
14.0;507.0
15.0;512.0
0.0;517.0
1.0;519.0
2.0;518.0
3.0;517.0
4.0;513.0
5.0;509.0
6.0;507.0
7.0;505.0
8.0;503.0
9.0;502.0
10.0;501.0
11.0;503.0
12.0;509.0
13.0;516.0
14.0;519.0
15.0;524.0
0.0;527.0
1.0;527.0
2.0;524.0
3.0;524.0
4.0;521.0
5.0;516.0
6.0;511.0
7.0;507.0
8.0;502.0
9.0;499.0
10.0;496.0
11.0;496.0
12.0;498.0
13.0;504.0
14.0;508.0
15.0;513.0
0.0;519.0
1.0;522.0
2.0;523.0
3.0;525.0
4.0;526.0
5.0;528.0
6.0;526.0
7.0;520.0
8.0;519.0
9.0;513.0
10.0;501.0
11.0;494.0
12.0;495.0
13.0;505.0
14.0;516.0
15.0;523.0
0.0;526.0
1.0;527.0
2.0;530.0
3.0;524.0
4.0;510.0
5.0;502.0
6.0;499.0
7.0;498.0
8.0;502.0
9.0;503.0
10.0;499.0
11.0;488.0
12.0;487.0
13.0;480.0
14.0;477.0
15.0;480.0
0.0;486.0
1.0;492.0
2.0;494.0
3.0;491.0
4.0;493.0
5.0;502.0
6.0;509.0
7.0;510.0
8.0;512.0
9.0;512.0
10.0;512.0
11.0;513.0
12.0;512.0
13.0;514.0
14.0;519.0
15.0;524.0
0.0;531.0
1.0;537.0
2.0;540.0
3.0;544.0
4.0;544.0
5.0;542.0
6.0;537.0
7.0;532.0
8.0;527.0
9.0;522.0
10.0;520.0
11.0;517.0
12.0;516.0
13.0;520.0
14.0;523.0
15.0;526.0
0.0;526.0
1.0;528.0
2.0;528.0
3.0;529.0
4.0;528.0
5.0;524.0
6.0;517.0
7.0;512.0
8.0;505.0
9.0;498.0
10.0;496.0
11.0;499.0
12.0;507.0
13.0;509.0
14.0;494.0
15.0;485.0
0.0;487.0
1.0;497.0
2.0;507.0
3.0;507.0
4.0;504.0
5.0;509.0
6.0;514.0
7.0;520.0
8.0;522.0
9.0;515.0
10.0;506.0
11.0;503.0
12.0;504.0
13.0;505.0
14.0;510.0
15.0;515.0
0.0;514.0
1.0;511.0
2.0;511.0
3.0;509.0
4.0;510.0
5.0;506.0
6.0;500.0
7.0;498.0
8.0;503.0
9.0;507.0
10.0;508.0
11.0;502.0
12.0;488.0
13.0;473.0
14.0;467.0
15.0;470.0
0.0;475.0
1.0;487.0
2.0;502.0
3.0;513.0
4.0;524.0
5.0;531.0
6.0;537.0
7.0;537.0
8.0;536.0
9.0;536.0
10.0;532.0
11.0;527.0
12.0;521.0
13.0;516.0
14.0;515.0
15.0;512.0
0.0;508.0
1.0;507.0
2.0;506.0
3.0;510.0
4.0;514.0
5.0;517.0
6.0;519.0
7.0;516.0
8.0;513.0
9.0;512.0
10.0;511.0
11.0;506.0
12.0;496.0
13.0;486.0
14.0;481.0
15.0;485.0
0.0;489.0
1.0;493.0
2.0;507.0
3.0;518.0
4.0;526.0
5.0;531.0
6.0;541.0
7.0;551.0
8.0;552.0
9.0;547.0
10.0;548.0
11.0;546.0
12.0;546.0
13.0;544.0
14.0;539.0
15.0;539.0
0.0;543.0
1.0;539.0
2.0;535.0
3.0;544.0
4.0;559.0
5.0;573.0
6.0;587.0
7.0;606.0
8.0;621.0
9.0;632.0
10.0;643.0
11.0;651.0
12.0;654.0
13.0;655.0
14.0;656.0
15.0;658.0
0.0;657.0
1.0;653.0
2.0;648.0
3.0;642.0
4.0;639.0
5.0;634.0
6.0;628.0
7.0;621.0
8.0;615.0
9.0;607.0
10.0;594.0
11.0;574.0
12.0;548.0
13.0;521.0
14.0;493.0
15.0;464.0
0.0;436.0
1.0;413.0
2.0;395.0
3.0;382.0
4.0;372.0
5.0;369.0
6.0;374.0
7.0;381.0
8.0;388.0
9.0;396.0
10.0;400.0
11.0;403.0
12.0;404.0
13.0;404.0
14.0;405.0
15.0;407.0
0.0;410.0
1.0;414.0
2.0;418.0
3.0;424.0
4.0;425.0
5.0;430.0
6.0;440.0
7.0;448.0
8.0;453.0
9.0;460.0
10.0;467.0
11.0;472.0
12.0;479.0
13.0;485.0
14.0;487.0
15.0;491.0
0.0;491.0
1.0;491.0
2.0;489.0
3.0;485.0
4.0;487.0
5.0;491.0
6.0;489.0
7.0;493.0
8.0;492.0
9.0;494.0
10.0;494.0
11.0;494.0
12.0;499.0
13.0;505.0
14.0;507.0
15.0;506.0
0.0;502.0
1.0;497.0
2.0;492.0
3.0;490.0
4.0;489.0
5.0;490.0
6.0;492.0
7.0;498.0
8.0;506.0
9.0;515.0
10.0;524.0
11.0;527.0
12.0;529.0
13.0;532.0
14.0;532.0
15.0;526.0
0.0;523.0
1.0;515.0
2.0;507.0
3.0;504.0
4.0;503.0
5.0;507.0
6.0;507.0
7.0;509.0
8.0;514.0
9.0;518.0
10.0;522.0
11.0;527.0
12.0;532.0
13.0;534.0
14.0;532.0
15.0;529.0
0.0;525.0
1.0;518.0
2.0;513.0
3.0;509.0
4.0;506.0
5.0;503.0
6.0;503.0
7.0;503.0
8.0;504.0
9.0;510.0
10.0;515.0
11.0;517.0
12.0;523.0
13.0;527.0
14.0;528.0
15.0;528.0
0.0;528.0
1.0;528.0
2.0;524.0
3.0;521.0
4.0;517.0
5.0;514.0
6.0;513.0
7.0;513.0
8.0;518.0
9.0;521.0
10.0;519.0
11.0;511.0
12.0;507.0
13.0;511.0
14.0;513.0
15.0;515.0
0.0;517.0
1.0;512.0
2.0;507.0
3.0;498.0
4.0;493.0
5.0;498.0
6.0;503.0
7.0;508.0
8.0;509.0
9.0;510.0
10.0;518.0
11.0;527.0
12.0;530.0
13.0;536.0
14.0;537.0
15.0;534.0
0.0;533.0
1.0;532.0
2.0;528.0
3.0;524.0
4.0;520.0
5.0;519.0
6.0;519.0
7.0;521.0
8.0;527.0
9.0;528.0
10.0;529.0
11.0;535.0
12.0;539.0
13.0;540.0
14.0;545.0
15.0;547.0
0.0;548.0
1.0;549.0
2.0;547.0
3.0;544.0
4.0;540.0
5.0;535.0
6.0;529.0
7.0;524.0
8.0;526.0
9.0;528.0
10.0;533.0
11.0;541.0
12.0;550.0
13.0;557.0
14.0;563.0
15.0;572.0
0.0;576.0
1.0;577.0
2.0;569.0
3.0;561.0
4.0;553.0
5.0;542.0
6.0;536.0
7.0;534.0
8.0;535.0
9.0;535.0
10.0;531.0
11.0;517.0
12.0;507.0
13.0;504.0
14.0;510.0
15.0;518.0
0.0;528.0
1.0;539.0
2.0;543.0
3.0;540.0
4.0;536.0
5.0;533.0
6.0;531.0
7.0;530.0
8.0;529.0
9.0;530.0
10.0;530.0
11.0;529.0
12.0;528.0
13.0;530.0
14.0;531.0
15.0;534.0
0.0;536.0
1.0;540.0
2.0;542.0
3.0;541.0
4.0;538.0
5.0;534.0
6.0;530.0
7.0;528.0
8.0;527.0
9.0;527.0
10.0;528.0
11.0;527.0
12.0;529.0
13.0;531.0
14.0;534.0
15.0;536.0
0.0;541.0
1.0;545.0
2.0;547.0
3.0;547.0
4.0;547.0
5.0;536.0
6.0;518.0
7.0;503.0
8.0;499.0
9.0;500.0
10.0;498.0
11.0;498.0
12.0;498.0
13.0;501.0
14.0;506.0
15.0;512.0
0.0;516.0
1.0;519.0
2.0;523.0
3.0;522.0
4.0;517.0
5.0;515.0
6.0;508.0
7.0;498.0
8.0;493.0
9.0;489.0
10.0;484.0
11.0;484.0
12.0;487.0
13.0;492.0
14.0;494.0
15.0;499.0
0.0;501.0
1.0;501.0
2.0;504.0
3.0;504.0
4.0;505.0
5.0;509.0
6.0;511.0
7.0;509.0
8.0;498.0
9.0;481.0
10.0;467.0
11.0;458.0
12.0;451.0
13.0;455.0
14.0;462.0
15.0;466.0
0.0;471.0
1.0;477.0
2.0;482.0
3.0;488.0
4.0;497.0
5.0;494.0
6.0;491.0
7.0;485.0
8.0;480.0
9.0;476.0
10.0;475.0
11.0;477.0
12.0;477.0
13.0;477.0
14.0;473.0
15.0;471.0
0.0;475.0
1.0;480.0
2.0;484.0
3.0;488.0
4.0;493.0
5.0;495.0
6.0;498.0
7.0;503.0
8.0;502.0
9.0;501.0
10.0;500.0
11.0;497.0
12.0;494.0
13.0;492.0
14.0;491.0
15.0;490.0
0.0;492.0
1.0;497.0
2.0;503.0
3.0;507.0
4.0;511.0
5.0;515.0
6.0;517.0
7.0;515.0
8.0;513.0
9.0;507.0
10.0;501.0
11.0;499.0
12.0;494.0
13.0;491.0
14.0;488.0
15.0;488.0
0.0;491.0
1.0;495.0
2.0;499.0
3.0;503.0
4.0;511.0
5.0;519.0
6.0;517.0
7.0;511.0
8.0;510.0
9.0;511.0
10.0;502.0
11.0;492.0
12.0;489.0
13.0;485.0
14.0;478.0
15.0;480.0
0.0;483.0
1.0;486.0
2.0;492.0
3.0;501.0
4.0;511.0
5.0;521.0
6.0;532.0
7.0;538.0
8.0;529.0
9.0;521.0
10.0;516.0
11.0;508.0
12.0;504.0
13.0;504.0
14.0;506.0
15.0;505.0
0.0;500.0
1.0;499.0
2.0;498.0
3.0;498.0
4.0;494.0
5.0;488.0
6.0;486.0
7.0;491.0
8.0;502.0
9.0;509.0
10.0;511.0
11.0;504.0
12.0;495.0
13.0;490.0
14.0;488.0
15.0;489.0
0.0;491.0
1.0;492.0
2.0;495.0
3.0;501.0
4.0;508.0
5.0;514.0
6.0;519.0
7.0;524.0
8.0;528.0
9.0;525.0
10.0;524.0
11.0;524.0
12.0;519.0
13.0;512.0
14.0;509.0
15.0;508.0
0.0;506.0
1.0;504.0
2.0;503.0
3.0;503.0
4.0;505.0
5.0;512.0
6.0;519.0
7.0;526.0
8.0;532.0
9.0;538.0
10.0;540.0
11.0;542.0
12.0;540.0
13.0;535.0
14.0;528.0
15.0;521.0
0.0;514.0
1.0;511.0
2.0;510.0
3.0;508.0
4.0;510.0
5.0;516.0
6.0;523.0
7.0;530.0
8.0;535.0
9.0;538.0
10.0;542.0
11.0;539.0
12.0;530.0
13.0;515.0
14.0;501.0
15.0;498.0
0.0;502.0
1.0;503.0
2.0;505.0
3.0;506.0
4.0;496.0
5.0;486.0
6.0;481.0
7.0;487.0
8.0;500.0
9.0;512.0
10.0;516.0
11.0;515.0
12.0;515.0
13.0;515.0
14.0;513.0
15.0;507.0
0.0;501.0
1.0;499.0
2.0;498.0
3.0;500.0
4.0;502.0
5.0;505.0
6.0;514.0
7.0;524.0
8.0;532.0
9.0;538.0
10.0;543.0
11.0;548.0
12.0;548.0
13.0;544.0
14.0;537.0
15.0;529.0
0.0;520.0
1.0;510.0
2.0;504.0
3.0;501.0
4.0;498.0
5.0;493.0
6.0;490.0
7.0;494.0
8.0;506.0
9.0;516.0
10.0;524.0
11.0;527.0
12.0;532.0
13.0;533.0
14.0;535.0
15.0;539.0
0.0;543.0
1.0;535.0
2.0;532.0
3.0;534.0
4.0;532.0
5.0;529.0
6.0;527.0
7.0;527.0
8.0;529.0
9.0;532.0
10.0;536.0
11.0;539.0
12.0;538.0
13.0;535.0
14.0;533.0
15.0;531.0
0.0;527.0
1.0;524.0
2.0;525.0
3.0;525.0
4.0;523.0
5.0;526.0
6.0;530.0
7.0;533.0
8.0;539.0
9.0;544.0
10.0;551.0
11.0;556.0
12.0;558.0
13.0;556.0
14.0;552.0
15.0;547.0
0.0;543.0
1.0;538.0
2.0;524.0
3.0;514.0
4.0;508.0
5.0;507.0
6.0;509.0
7.0;511.0
8.0;511.0
9.0;512.0
10.0;517.0
11.0;520.0
12.0;522.0
13.0;524.0
14.0;526.0
15.0;529.0
0.0;535.0
1.0;540.0
2.0;536.0
3.0;528.0
4.0;512.0
5.0;496.0
6.0;487.0
7.0;485.0
8.0;493.0
9.0;500.0
10.0;508.0
11.0;521.0
12.0;528.0
13.0;531.0
14.0;527.0
15.0;520.0
0.0;514.0
1.0;510.0
2.0;511.0
3.0;513.0
4.0;517.0
5.0;519.0
6.0;517.0
7.0;514.0
8.0;513.0
9.0;515.0
10.0;516.0
11.0;519.0
12.0;527.0
13.0;533.0
14.0;536.0
15.0;539.0
0.0;540.0
1.0;541.0
2.0;538.0
3.0;528.0
4.0;518.0
5.0;513.0
6.0;508.0
7.0;506.0
8.0;511.0
9.0;513.0
10.0;513.0
11.0;517.0
12.0;523.0
13.0;527.0
14.0;530.0
15.0;535.0
0.0;539.0
1.0;540.0
2.0;537.0
3.0;533.0
4.0;523.0
5.0;518.0
6.0;515.0
7.0;512.0
8.0;511.0
9.0;511.0
10.0;511.0
11.0;512.0
12.0;515.0
13.0;519.0
14.0;525.0
15.0;531.0
0.0;535.0
1.0;538.0
2.0;537.0
3.0;539.0
4.0;538.0
5.0;532.0
6.0;529.0
7.0;529.0
8.0;529.0
9.0;527.0
10.0;529.0
11.0;534.0
12.0;537.0
13.0;541.0
14.0;548.0
15.0;555.0
0.0;565.0
1.0;577.0
2.0;587.0
3.0;597.0
4.0;604.0
5.0;604.0
6.0;611.0
7.0;616.0
8.0;619.0
9.0;625.0
10.0;632.0
11.0;639.0
12.0;649.0
13.0;662.0
14.0;676.0
15.0;683.0
0.0;687.0
1.0;689.0
2.0;685.0
3.0;676.0
4.0;660.0
5.0;639.0
6.0;619.0
7.0;601.0
8.0;583.0
9.0;566.0
10.0;549.0
11.0;530.0
12.0;512.0
13.0;494.0
14.0;476.0
15.0;459.0
0.0;441.0
1.0;427.0
2.0;415.0
3.0;405.0
4.0;398.0
5.0;395.0
6.0;391.0
7.0;389.0
8.0;388.0
9.0;389.0
10.0;393.0
11.0;401.0
12.0;409.0
13.0;417.0
14.0;426.0
15.0;437.0
0.0;448.0
1.0;453.0
2.0;456.0
3.0;462.0
4.0;471.0
5.0;479.0
6.0;481.0
7.0;482.0
8.0;482.0
9.0;479.0
10.0;478.0
11.0;480.0
12.0;486.0
13.0;492.0
14.0;498.0
15.0;502.0
0.0;502.0
1.0;500.0
2.0;499.0
3.0;505.0
4.0;509.0
5.0;507.0
6.0;505.0
7.0;502.0
8.0;494.0
9.0;491.0
10.0;497.0
11.0;507.0
12.0;510.0
13.0;516.0
14.0;524.0
15.0;528.0
0.0;529.0
1.0;528.0
2.0;523.0
3.0;515.0
4.0;505.0
5.0;495.0
6.0;491.0
7.0;494.0
8.0;502.0
9.0;505.0
10.0;504.0
11.0;505.0
12.0;501.0
13.0;502.0
14.0;504.0
15.0;507.0
0.0;511.0
1.0;516.0
2.0;522.0
3.0;527.0
4.0;532.0
5.0;536.0
6.0;538.0
7.0;540.0
8.0;537.0
9.0;533.0
10.0;529.0
11.0;529.0
12.0;529.0
13.0;527.0
14.0;525.0
15.0;525.0
0.0;526.0
1.0;529.0
2.0;534.0
3.0;539.0
4.0;542.0
5.0;545.0
6.0;547.0
7.0;547.0
8.0;546.0
9.0;543.0
10.0;536.0
11.0;530.0
12.0;525.0
13.0;520.0
14.0;516.0
15.0;516.0
0.0;519.0
1.0;520.0
2.0;523.0
3.0;527.0
4.0;532.0
5.0;539.0
6.0;542.0
7.0;541.0
8.0;544.0
9.0;543.0
10.0;539.0
11.0;533.0
12.0;531.0
13.0;532.0
14.0;527.0
15.0;523.0
0.0;520.0
1.0;520.0
2.0;519.0
3.0;524.0
4.0;526.0
5.0;529.0
6.0;536.0
7.0;541.0
8.0;541.0
9.0;540.0
10.0;536.0
11.0;517.0
12.0;502.0
13.0;499.0
14.0;497.0
15.0;498.0
0.0;500.0
1.0;503.0
2.0;507.0
3.0;513.0
4.0;526.0
5.0;535.0
6.0;539.0
7.0;545.0
8.0;551.0
9.0;552.0
10.0;548.0
11.0;542.0
12.0;532.0
13.0;524.0
14.0;519.0
15.0;518.0
0.0;517.0
1.0;516.0
2.0;518.0
3.0;518.0
4.0;520.0
5.0;527.0
6.0;534.0
7.0;539.0
8.0;545.0
9.0;548.0
10.0;550.0
11.0;549.0
12.0;547.0
13.0;542.0
14.0;538.0
15.0;534.0
0.0;530.0
1.0;529.0
2.0;528.0
3.0;529.0
4.0;532.0
5.0;537.0
6.0;543.0
7.0;545.0
8.0;548.0
9.0;550.0
10.0;549.0
11.0;549.0
12.0;547.0
13.0;543.0
14.0;538.0
15.0;537.0
0.0;535.0
1.0;530.0
2.0;526.0
3.0;526.0
4.0;529.0
5.0;532.0
6.0;535.0
7.0;538.0
8.0;540.0
9.0;543.0
10.0;547.0
11.0;546.0
12.0;544.0
13.0;543.0
14.0;541.0
15.0;541.0
0.0;531.0
1.0;525.0
2.0;524.0
3.0;524.0
4.0;519.0
5.0;513.0
6.0;511.0
7.0;510.0
8.0;513.0
9.0;524.0
10.0;534.0
11.0;539.0
12.0;542.0
13.0;538.0
14.0;530.0
15.0;518.0
0.0;511.0
1.0;510.0
2.0;510.0
3.0;505.0
4.0;502.0
5.0;503.0
6.0;501.0
7.0;495.0
8.0;495.0
9.0;497.0
10.0;493.0
11.0;490.0
12.0;492.0
13.0;496.0
14.0;495.0
15.0;487.0
0.0;480.0
1.0;474.0
2.0;473.0
3.0;468.0
4.0;465.0
5.0;467.0
6.0;472.0
7.0;476.0
8.0;480.0
9.0;483.0
10.0;484.0
11.0;484.0
12.0;485.0
13.0;483.0
14.0;485.0
15.0;489.0
0.0;490.0
1.0;485.0
2.0;477.0
3.0;471.0
4.0;465.0
5.0;462.0
6.0;461.0
7.0;461.0
8.0;463.0
9.0;466.0
10.0;473.0
11.0;480.0
12.0;486.0
13.0;486.0
14.0;486.0
15.0;486.0
0.0;481.0
1.0;474.0
2.0;465.0
3.0;462.0
4.0;458.0
5.0;455.0
6.0;456.0
7.0;456.0
8.0;457.0
9.0;466.0
10.0;476.0
11.0;481.0
12.0;479.0
13.0;476.0
14.0;475.0
15.0;477.0
0.0;479.0
1.0;478.0
2.0;476.0
3.0;476.0
4.0;477.0
5.0;477.0
6.0;473.0
7.0;462.0
8.0;449.0
9.0;443.0
10.0;445.0
11.0;451.0
12.0;459.0
13.0;466.0
14.0;473.0
15.0;484.0
0.0;483.0
1.0;475.0
2.0;459.0
3.0;444.0
4.0;442.0
5.0;441.0
6.0;438.0
7.0;442.0
8.0;449.0
9.0;449.0
10.0;454.0
11.0;460.0
12.0;466.0
13.0;472.0
14.0;479.0
15.0;485.0
0.0;487.0
1.0;489.0
2.0;496.0
3.0;495.0
4.0;491.0
5.0;487.0
6.0;482.0
7.0;474.0
8.0;469.0
9.0;469.0
10.0;471.0
11.0;477.0
12.0;483.0
13.0;488.0
14.0;493.0
15.0;499.0
0.0;504.0
1.0;506.0
2.0;507.0
3.0;503.0
4.0;494.0
5.0;487.0
6.0;483.0
7.0;480.0
8.0;479.0
9.0;479.0
10.0;479.0
11.0;481.0
12.0;485.0
13.0;489.0
14.0;493.0
15.0;500.0
0.0;503.0
1.0;504.0
2.0;506.0
3.0;504.0
4.0;498.0
5.0;492.0
6.0;488.0
7.0;487.0
8.0;483.0
9.0;481.0
10.0;482.0
11.0;482.0
12.0;485.0
13.0;490.0
14.0;492.0
15.0;498.0
0.0;504.0
1.0;507.0
2.0;508.0
3.0;512.0
4.0;517.0
5.0;513.0
6.0;510.0
7.0;499.0
8.0;488.0
9.0;483.0
10.0;480.0
11.0;482.0
12.0;486.0
13.0;484.0
14.0;486.0
15.0;492.0
0.0;502.0
1.0;512.0
2.0;519.0
3.0;527.0
4.0;525.0
5.0;520.0
6.0;508.0
7.0;493.0
8.0;483.0
9.0;480.0
10.0;481.0
11.0;482.0
12.0;481.0
13.0;480.0
14.0;481.0
15.0;486.0
0.0;489.0
1.0;498.0
2.0;504.0
3.0;507.0
4.0;513.0
5.0;515.0
6.0;510.0
7.0;505.0
8.0;502.0
9.0;499.0
10.0;502.0
11.0;502.0
12.0;503.0
13.0;507.0
14.0;512.0
15.0;513.0
0.0;513.0
1.0;513.0
2.0;516.0
3.0;518.0
4.0;515.0
5.0;511.0
6.0;512.0
7.0;510.0
8.0;507.0
9.0;505.0
10.0;502.0
11.0;500.0
12.0;501.0
13.0;500.0
14.0;500.0
15.0;501.0
0.0;506.0
1.0;509.0
2.0;510.0
3.0;514.0
4.0;518.0
5.0;518.0
6.0;517.0
7.0;514.0
8.0;509.0
9.0;506.0
10.0;504.0
11.0;501.0
12.0;500.0
13.0;501.0
14.0;502.0
15.0;500.0
0.0;500.0
1.0;504.0
2.0;505.0
3.0;510.0
4.0;515.0
5.0;519.0
6.0;520.0
7.0;519.0
8.0;514.0
9.0;511.0
10.0;507.0
11.0;502.0
12.0;498.0
13.0;493.0
14.0;497.0
15.0;496.0
0.0;502.0
1.0;511.0
2.0;511.0
3.0;514.0
4.0;516.0
5.0;519.0
6.0;516.0
7.0;505.0
8.0;498.0
9.0;495.0
10.0;493.0
11.0;491.0
12.0;487.0
13.0;489.0
14.0;491.0
15.0;491.0
0.0;492.0
1.0;494.0
2.0;505.0
3.0;510.0
4.0;501.0
5.0;499.0
6.0;502.0
7.0;507.0
8.0;508.0
9.0;505.0
10.0;502.0
11.0;503.0
12.0;504.0
13.0;499.0
14.0;495.0
15.0;496.0
0.0;503.0
1.0;510.0
2.0;517.0
3.0;522.0
4.0;526.0
5.0;533.0
6.0;535.0
7.0;533.0
8.0;529.0
9.0;526.0
10.0;524.0
11.0;522.0
12.0;519.0
13.0;514.0
14.0;509.0
15.0;508.0
0.0;511.0
1.0;513.0
2.0;514.0
3.0;518.0
4.0;521.0
5.0;523.0
6.0;526.0
7.0;528.0
8.0;527.0
9.0;526.0
10.0;524.0
11.0;520.0
12.0;515.0
13.0;511.0
14.0;507.0
15.0;503.0
0.0;503.0
1.0;505.0
2.0;505.0
3.0;508.0
4.0;513.0
5.0;514.0
6.0;514.0
7.0;520.0
8.0;528.0
9.0;531.0
10.0;532.0
11.0;529.0
12.0;527.0
13.0;510.0
14.0;495.0
15.0;487.0
0.0;487.0
1.0;487.0
2.0;489.0
3.0;496.0
4.0;500.0
5.0;501.0
6.0;505.0
7.0;515.0
8.0;522.0
9.0;521.0
10.0;519.0
11.0;518.0
12.0;519.0
13.0;519.0
14.0;517.0
15.0;518.0
0.0;522.0
1.0;526.0
2.0;523.0
3.0;507.0
4.0;487.0
5.0;482.0
6.0;492.0
7.0;501.0
8.0;504.0
9.0;508.0
10.0;512.0
11.0;510.0
12.0;508.0
13.0;506.0
14.0;503.0
15.0;503.0
0.0;497.0
1.0;489.0
2.0;484.0
3.0;483.0
4.0;484.0
5.0;489.0
6.0;497.0
7.0;507.0
8.0;515.0
9.0;522.0
10.0;526.0
11.0;528.0
12.0;528.0
13.0;526.0
14.0;522.0
15.0;515.0
0.0;513.0
1.0;508.0
2.0;503.0
3.0;503.0
4.0;502.0
5.0;504.0
6.0;508.0
7.0;515.0
8.0;524.0
9.0;530.0
10.0;537.0
11.0;540.0
12.0;537.0
13.0;535.0
14.0;535.0
15.0;530.0
0.0;524.0
1.0;519.0
2.0;517.0
3.0;516.0
4.0;521.0
5.0;527.0
6.0;534.0
7.0;542.0
8.0;550.0
9.0;556.0
10.0;566.0
11.0;577.0
12.0;584.0
13.0;591.0
14.0;598.0
15.0;603.0
0.0;610.0
1.0;618.0
2.0;621.0
3.0;622.0
4.0;622.0
5.0;627.0
6.0;632.0
7.0;643.0
8.0;656.0
9.0;666.0
10.0;671.0
11.0;678.0
12.0;684.0
13.0;675.0
14.0;664.0
15.0;651.0
0.0;634.0
1.0;619.0
2.0;602.0
3.0;578.0
4.0;551.0
5.0;526.0
6.0;504.0
7.0;483.0
8.0;460.0
9.0;439.0
10.0;423.0
11.0;414.0
12.0;410.0
13.0;403.0
14.0;397.0
15.0;392.0
0.0;392.0
1.0;392.0
2.0;391.0
3.0;390.0
4.0;387.0
5.0;388.0
6.0;394.0
7.0;401.0
8.0;409.0
9.0;419.0
10.0;430.0
11.0;440.0
12.0;451.0
13.0;460.0
14.0;466.0
15.0;470.0
0.0;479.0
1.0;483.0
2.0;480.0
3.0;476.0
4.0;472.0
5.0;473.0
6.0;480.0
7.0;487.0
8.0;496.0
9.0;501.0
10.0;507.0
11.0;510.0
12.0;514.0
13.0;518.0
14.0;522.0
15.0;522.0
0.0;523.0
1.0;522.0
2.0;520.0
3.0;516.0
4.0;512.0
5.0;506.0
6.0;501.0
7.0;500.0
8.0;498.0
9.0;500.0
10.0;505.0
11.0;513.0
12.0;524.0
13.0;533.0
14.0;540.0
15.0;548.0
0.0;552.0
1.0;543.0
2.0;532.0
3.0;526.0
4.0;522.0
5.0;521.0
6.0;514.0
7.0;502.0
8.0;492.0
9.0;482.0
10.0;482.0
11.0;493.0
12.0;504.0
13.0;512.0
14.0;516.0
15.0;518.0
0.0;516.0
1.0;516.0
2.0;520.0
3.0;518.0
4.0;511.0
5.0;507.0
6.0;502.0
7.0;499.0
8.0;502.0
9.0;509.0
10.0;513.0
11.0;515.0
12.0;519.0
13.0;522.0
14.0;525.0
15.0;530.0
0.0;537.0
1.0;538.0
2.0;535.0
3.0;537.0
4.0;533.0
5.0;521.0
6.0;514.0
7.0;512.0
8.0;509.0
9.0;507.0
10.0;508.0
11.0;510.0
12.0;512.0
13.0;517.0
14.0;524.0
15.0;529.0
0.0;536.0
1.0;541.0
2.0;542.0
3.0;542.0
4.0;538.0
5.0;532.0
6.0;527.0
7.0;525.0
8.0;521.0
9.0;516.0
10.0;513.0
11.0;514.0
12.0;515.0
13.0;517.0
14.0;521.0
15.0;527.0
0.0;532.0
1.0;539.0
2.0;547.0
3.0;553.0
4.0;559.0
5.0;556.0
6.0;548.0
7.0;542.0
8.0;540.0
9.0;535.0
10.0;527.0
11.0;524.0
12.0;524.0
13.0;527.0
14.0;532.0
15.0;537.0
0.0;544.0
1.0;550.0
2.0;547.0
3.0;544.0
4.0;542.0
5.0;538.0
6.0;535.0
7.0;531.0
8.0;528.0
9.0;525.0
10.0;522.0
11.0;523.0
12.0;526.0
13.0;532.0
14.0;541.0
15.0;551.0
0.0;553.0
1.0;556.0
2.0;553.0
3.0;546.0
4.0;541.0
5.0;538.0
6.0;533.0
7.0;527.0
8.0;524.0
9.0;519.0
10.0;518.0
11.0;515.0
12.0;515.0
13.0;521.0
14.0;523.0
15.0;525.0
0.0;529.0
1.0;534.0
2.0;543.0
3.0;551.0
4.0;557.0
5.0;557.0
6.0;557.0
7.0;555.0
8.0;547.0
9.0;541.0
10.0;536.0
11.0;534.0
12.0;535.0
13.0;539.0
14.0;544.0
15.0;548.0
0.0;551.0
1.0;555.0
2.0;555.0
3.0;555.0
4.0;556.0
5.0;556.0
6.0;555.0
7.0;555.0
8.0;555.0
9.0;552.0
10.0;549.0
11.0;544.0
12.0;539.0
13.0;534.0
14.0;531.0
15.0;531.0
0.0;533.0
1.0;537.0
2.0;542.0
3.0;549.0
4.0;555.0
5.0;556.0
6.0;553.0
7.0;550.0
8.0;546.0
9.0;542.0
10.0;536.0
11.0;531.0
12.0;524.0
13.0;519.0
14.0;521.0
15.0;521.0
0.0;520.0
1.0;521.0
2.0;525.0
3.0;526.0
4.0;525.0
5.0;527.0
6.0;526.0
7.0;521.0
8.0;521.0
9.0;519.0
10.0;515.0
11.0;513.0
12.0;512.0
13.0;507.0
14.0;502.0
15.0;503.0
0.0;501.0
1.0;500.0
2.0;505.0
3.0;515.0
4.0;520.0
5.0;522.0
6.0;524.0
7.0;518.0
8.0;511.0
9.0;502.0
10.0;497.0
11.0;493.0
12.0;487.0
13.0;479.0
14.0;472.0
15.0;470.0
0.0;473.0
1.0;475.0
2.0;476.0
3.0;484.0
4.0;493.0
5.0;499.0
6.0;504.0
7.0;508.0
8.0;508.0
9.0;505.0
10.0;499.0
11.0;496.0
12.0;495.0
13.0;497.0
14.0;501.0
15.0;498.0
0.0;492.0
1.0;487.0
2.0;485.0
3.0;486.0
4.0;489.0
5.0;498.0
6.0;504.0
7.0;508.0
8.0;515.0
9.0;514.0
10.0;515.0
11.0;513.0
12.0;510.0
13.0;506.0
14.0;503.0
15.0;499.0
0.0;495.0
1.0;494.0
2.0;495.0
3.0;496.0
4.0;501.0
5.0;508.0
6.0;513.0
7.0;518.0
8.0;522.0
9.0;523.0
10.0;521.0
11.0;520.0
12.0;518.0
13.0;512.0
14.0;508.0
15.0;504.0
0.0;501.0
1.0;499.0
2.0;505.0
3.0;507.0
4.0;510.0
5.0;515.0
6.0;519.0
7.0;521.0
8.0;521.0
9.0;519.0
10.0;518.0
11.0;521.0
12.0;523.0
13.0;523.0
14.0;520.0
15.0;512.0
0.0;503.0
1.0;491.0
2.0;483.0
3.0;484.0
4.0;489.0
5.0;493.0
6.0;498.0
7.0;501.0
8.0;507.0
9.0;512.0
10.0;514.0
11.0;511.0
12.0;511.0
13.0;510.0
14.0;504.0
15.0;498.0
0.0;494.0
1.0;490.0
2.0;487.0
3.0;487.0
4.0;492.0
5.0;498.0
6.0;502.0
7.0;507.0
8.0;511.0
9.0;512.0
10.0;518.0
11.0;522.0
12.0;523.0
13.0;527.0
14.0;528.0
15.0;521.0
0.0;510.0
1.0;497.0
2.0;489.0
3.0;485.0
4.0;487.0
5.0;492.0
6.0;495.0
7.0;501.0
8.0;507.0
9.0;511.0
10.0;516.0
11.0;522.0
12.0;524.0
13.0;520.0
14.0;516.0
15.0;511.0
0.0;503.0
1.0;494.0
2.0;488.0
3.0;487.0
4.0;487.0
5.0;488.0
6.0;488.0
7.0;490.0
8.0;497.0
9.0;505.0
10.0;510.0
11.0;513.0
12.0;515.0
13.0;517.0
14.0;523.0
15.0;525.0
0.0;524.0
1.0;523.0
2.0;520.0
3.0;517.0
4.0;506.0
5.0;496.0
6.0;493.0
7.0;495.0
8.0;501.0
9.0;504.0
10.0;508.0
11.0;514.0
12.0;513.0
13.0;512.0
14.0;513.0
15.0;517.0
0.0;518.0
1.0;513.0
2.0;505.0
3.0;499.0
4.0;498.0
5.0;497.0
6.0;496.0
7.0;495.0
8.0;496.0
9.0;504.0
10.0;506.0
11.0;507.0
12.0;512.0
13.0;517.0
14.0;519.0
15.0;513.0
0.0;504.0
1.0;499.0
2.0;499.0
3.0;499.0
4.0;499.0
5.0;505.0
6.0;508.0
7.0;507.0
8.0;502.0
9.0;497.0
10.0;498.0
11.0;498.0
12.0;500.0
13.0;507.0
14.0;511.0
15.0;513.0
0.0;517.0
1.0;519.0
2.0;516.0
3.0;512.0
4.0;510.0
5.0;504.0
6.0;496.0
7.0;493.0
8.0;493.0
9.0;495.0
10.0;502.0
11.0;512.0
12.0;523.0
13.0;530.0
14.0;533.0
15.0;532.0
0.0;527.0
1.0;524.0
2.0;521.0
3.0;517.0
4.0;514.0
5.0;511.0
6.0;508.0
7.0;507.0
8.0;510.0
9.0;514.0
10.0;515.0
11.0;516.0
12.0;518.0
13.0;521.0
14.0;524.0
15.0;531.0
0.0;536.0
1.0;538.0
2.0;538.0
3.0;534.0
4.0;524.0
5.0;516.0
6.0;512.0
7.0;513.0
8.0;519.0
9.0;519.0
10.0;515.0
11.0;514.0
12.0;514.0
13.0;511.0
14.0;510.0
15.0;515.0
0.0;522.0
1.0;523.0
2.0;523.0
3.0;516.0
4.0;504.0
5.0;494.0
6.0;487.0
7.0;475.0
8.0;462.0
9.0;457.0
10.0;460.0
11.0;468.0
12.0;480.0
13.0;489.0
14.0;500.0
15.0;508.0
0.0;512.0
1.0;516.0
2.0;518.0
3.0;520.0
4.0;521.0
5.0;518.0
6.0;511.0
7.0;506.0
8.0;506.0
9.0;503.0
10.0;499.0
11.0;501.0
12.0;500.0
13.0;499.0
14.0;498.0
15.0;502.0
0.0;510.0
1.0;516.0
2.0;521.0
3.0;524.0
4.0;526.0
5.0;523.0
6.0;517.0
7.0;510.0
8.0;504.0
9.0;501.0
10.0;499.0
11.0;502.0
12.0;504.0
13.0;505.0
14.0;507.0
15.0;508.0
0.0;510.0
1.0;515.0
2.0;519.0
3.0;521.0
4.0;521.0
5.0;518.0
6.0;514.0
7.0;509.0
8.0;503.0
9.0;497.0
10.0;493.0
11.0;493.0
12.0;496.0
13.0;498.0
14.0;500.0
15.0;504.0
0.0;508.0
1.0;511.0
2.0;514.0
3.0;515.0
4.0;518.0
5.0;525.0
6.0;530.0
7.0;522.0
8.0;511.0
9.0;503.0
10.0;488.0
11.0;475.0
12.0;477.0
13.0;486.0
14.0;494.0
15.0;503.0
0.0;510.0
1.0;515.0
2.0;517.0
3.0;518.0
4.0;523.0
5.0;524.0
6.0;526.0
7.0;530.0
8.0;527.0
9.0;523.0
10.0;526.0
11.0;526.0
12.0;529.0
13.0;535.0
14.0;541.0
15.0;549.0
0.0;558.0
1.0;571.0
2.0;584.0
3.0;599.0
4.0;612.0
5.0;623.0
6.0;634.0
7.0;641.0
8.0;645.0
9.0;646.0
10.0;647.0
11.0;652.0
12.0;652.0
13.0;654.0
14.0;656.0
15.0;650.0
0.0;641.0
1.0;633.0
2.0;623.0
3.0;616.0
4.0;611.0
5.0;603.0
6.0;587.0
7.0;573.0
8.0;555.0
9.0;530.0
10.0;503.0
11.0;476.0
12.0;450.0
13.0;425.0
14.0;407.0
15.0;395.0
0.0;384.0
1.0;380.0
2.0;383.0
3.0;390.0
4.0;397.0
5.0;403.0
6.0;409.0
7.0;413.0
8.0;418.0
9.0;422.0
10.0;425.0
11.0;430.0
12.0;431.0
13.0;430.0
14.0;433.0
15.0;435.0
0.0;434.0
1.0;438.0
2.0;448.0
3.0;460.0
4.0;470.0
5.0;480.0
6.0;488.0
7.0;492.0
8.0;488.0
9.0;487.0
10.0;488.0
11.0;485.0
12.0;484.0
13.0;486.0
14.0;487.0
15.0;491.0
0.0;499.0
1.0;504.0
2.0;506.0
3.0;510.0
4.0;516.0
5.0;521.0
6.0;526.0
7.0;533.0
8.0;537.0
9.0;540.0
10.0;540.0
11.0;539.0
12.0;535.0
13.0;528.0
14.0;520.0
15.0;515.0
0.0;512.0
1.0;513.0
2.0;514.0
3.0;516.0
4.0;523.0
5.0;528.0
6.0;533.0
7.0;536.0
8.0;540.0
9.0;539.0
10.0;537.0
11.0;537.0
12.0;534.0
13.0;530.0
14.0;527.0
15.0;526.0
0.0;522.0
1.0;521.0
2.0;519.0
3.0;514.0
4.0;518.0
5.0;526.0
6.0;534.0
7.0;540.0
8.0;545.0
9.0;546.0
10.0;545.0
11.0;546.0
12.0;540.0
13.0;530.0
14.0;523.0
15.0;519.0
0.0;515.0
1.0;509.0
2.0;511.0
3.0;515.0
4.0;515.0
5.0;517.0
6.0;521.0
7.0;526.0
8.0;531.0
9.0;537.0
10.0;541.0
11.0;539.0
12.0;538.0
13.0;537.0
14.0;536.0
15.0;533.0
0.0;530.0
1.0;528.0
2.0;527.0
3.0;527.0
4.0;527.0
5.0;531.0
6.0;537.0
7.0;543.0
8.0;547.0
9.0;550.0
10.0;552.0
11.0;551.0
12.0;551.0
13.0;551.0
14.0;547.0
15.0;548.0
0.0;548.0
1.0;539.0
2.0;533.0
3.0;530.0
4.0;527.0
5.0;528.0
6.0;536.0
7.0;540.0
8.0;538.0
9.0;539.0
10.0;540.0
11.0;543.0
12.0;546.0
13.0;549.0
14.0;549.0
15.0;547.0
0.0;540.0
1.0;534.0
2.0;530.0
3.0;527.0
4.0;528.0
5.0;532.0
6.0;534.0
7.0;536.0
8.0;544.0
9.0;548.0
10.0;551.0
11.0;552.0
12.0;549.0
13.0;548.0
14.0;547.0
15.0;547.0
0.0;545.0
1.0;537.0
2.0;533.0
3.0;533.0
4.0;534.0
5.0;538.0
6.0;541.0
7.0;547.0
8.0;553.0
9.0;557.0
10.0;556.0
11.0;556.0
12.0;557.0
13.0;556.0
14.0;558.0
15.0;557.0
0.0;550.0
1.0;545.0
2.0;543.0
3.0;541.0
4.0;537.0
5.0;537.0
6.0;539.0
7.0;540.0
8.0;541.0
9.0;546.0
10.0;551.0
11.0;557.0
12.0;564.0
13.0;567.0
14.0;566.0
15.0;563.0
0.0;558.0
1.0;551.0
2.0;543.0
3.0;538.0
4.0;535.0
5.0;531.0
6.0;531.0
7.0;533.0
8.0;534.0
9.0;540.0
10.0;547.0
11.0;556.0
12.0;560.0
13.0;560.0
14.0;557.0
15.0;554.0
0.0;555.0
1.0;546.0
2.0;539.0
3.0;534.0
4.0;531.0
5.0;528.0
6.0;521.0
7.0;518.0
8.0;516.0
9.0;516.0
10.0;518.0
11.0;523.0
12.0;530.0
13.0;532.0
14.0;538.0
15.0;544.0
0.0;544.0
1.0;536.0
2.0;526.0
3.0;516.0
4.0;507.0
5.0;503.0
6.0;503.0
7.0;508.0
8.0;508.0
9.0;512.0
10.0;519.0
11.0;522.0
12.0;513.0
13.0;502.0
14.0;498.0
15.0;498.0
0.0;498.0
1.0;497.0
2.0;495.0
3.0;503.0
4.0;503.0
5.0;493.0
6.0;483.0
7.0;470.0
8.0;465.0
9.0;463.0
10.0;465.0
11.0;472.0
12.0;480.0
13.0;489.0
14.0;497.0
15.0;502.0
0.0;507.0
1.0;506.0
2.0;505.0
3.0;500.0
4.0;492.0
5.0;488.0
6.0;487.0
7.0;482.0
8.0;479.0
9.0;478.0
10.0;480.0
11.0;483.0
12.0;490.0
13.0;496.0
14.0;502.0
15.0;508.0
0.0;511.0
1.0;512.0
2.0;510.0
3.0;510.0
4.0;505.0
5.0;503.0
6.0;501.0
7.0;499.0
8.0;495.0
9.0;492.0
10.0;493.0
11.0;490.0
12.0;490.0
13.0;497.0
14.0;508.0
15.0;514.0
0.0;517.0
1.0;521.0
2.0;519.0
3.0;515.0
4.0;512.0
5.0;504.0
6.0;498.0
7.0;496.0
8.0;492.0
9.0;487.0
10.0;490.0
11.0;492.0
12.0;492.0
13.0;494.0
14.0;500.0
15.0;505.0
0.0;508.0
1.0;508.0
2.0;508.0
3.0;510.0
4.0;512.0
5.0;510.0
6.0;507.0
7.0;506.0
8.0;507.0
9.0;503.0
10.0;498.0
11.0;494.0
12.0;490.0
13.0;490.0
14.0;494.0
15.0;496.0
0.0;500.0
1.0;507.0
2.0;511.0
3.0;511.0
4.0;515.0
5.0;521.0
6.0;519.0
7.0;519.0
8.0;512.0
9.0;504.0
10.0;499.0
11.0;496.0
12.0;497.0
13.0;497.0
14.0;496.0
15.0;495.0
0.0;495.0
1.0;500.0
2.0;509.0
3.0;515.0
4.0;517.0
5.0;515.0
6.0;514.0
7.0;515.0
8.0;513.0
9.0;508.0
10.0;498.0
11.0;495.0
12.0;498.0
13.0;502.0
14.0;510.0
15.0;515.0
0.0;519.0
1.0;521.0
2.0;523.0
3.0;524.0
4.0;523.0
5.0;521.0
6.0;521.0
7.0;524.0
8.0;525.0
9.0;521.0
10.0;516.0
11.0;511.0
12.0;510.0
13.0;511.0
14.0;510.0
15.0;510.0
0.0;514.0
1.0;518.0
2.0;523.0
3.0;527.0
4.0;532.0
5.0;534.0
6.0;530.0
7.0;524.0
8.0;519.0
9.0;515.0
10.0;516.0
11.0;518.0
12.0;518.0
13.0;519.0
14.0;523.0
15.0;525.0
0.0;519.0
1.0;522.0
2.0;528.0
3.0;528.0
4.0;528.0
5.0;529.0
6.0;527.0
7.0;527.0
8.0;525.0
9.0;517.0
10.0;510.0
11.0;509.0
12.0;505.0
13.0;498.0
14.0;491.0
15.0;485.0
0.0;488.0
1.0;497.0
2.0;508.0
3.0;507.0
4.0;504.0
5.0;511.0
6.0;519.0
7.0;526.0
8.0;528.0
9.0;525.0
10.0;519.0
11.0;514.0
12.0;511.0
13.0;508.0
14.0;506.0
15.0;508.0
0.0;508.0
1.0;507.0
2.0;511.0
3.0;515.0
4.0;518.0
5.0;522.0
6.0;526.0
7.0;528.0
8.0;528.0
9.0;529.0
10.0;528.0
11.0;525.0
12.0;524.0
13.0;520.0
14.0;518.0
15.0;515.0
0.0;513.0
1.0;512.0
2.0;514.0
3.0;518.0
4.0;524.0
5.0;529.0
6.0;535.0
7.0;538.0
8.0;538.0
9.0;537.0
10.0;536.0
11.0;531.0
12.0;525.0
13.0;521.0
14.0;514.0
15.0;510.0
0.0;509.0
1.0;511.0
2.0;517.0
3.0;526.0
4.0;541.0
5.0;551.0
6.0;544.0
7.0;539.0
8.0;529.0
9.0;520.0
10.0;519.0
11.0;518.0
12.0;516.0
13.0;510.0
14.0;498.0
15.0;487.0
0.0;483.0
1.0;492.0
2.0;498.0
3.0;498.0
4.0;506.0
5.0;511.0
6.0;513.0
7.0;519.0
8.0;528.0
9.0;533.0
10.0;532.0
11.0;535.0
12.0;537.0
13.0;538.0
14.0;533.0
15.0;513.0
0.0;497.0
1.0;484.0
2.0;483.0
3.0;479.0
4.0;472.0
5.0;476.0
6.0;487.0
7.0;496.0
8.0;500.0
9.0;505.0
10.0;509.0
11.0;509.0
12.0;507.0
13.0;503.0
14.0;499.0
15.0;498.0
0.0;497.0
1.0;495.0
2.0;495.0
3.0;494.0
4.0;495.0
5.0;497.0
6.0;501.0
7.0;506.0
8.0;511.0
9.0;516.0
10.0;516.0
11.0;517.0
12.0;518.0
13.0;518.0
14.0;513.0
15.0;508.0
0.0;503.0
1.0;500.0
2.0;497.0
3.0;496.0
4.0;496.0
5.0;497.0
6.0;501.0
7.0;508.0
8.0;512.0
9.0;518.0
10.0;522.0
11.0;524.0
12.0;524.0
13.0;524.0
14.0;522.0
15.0;516.0
0.0;511.0
1.0;508.0
2.0;500.0
3.0;492.0
4.0;492.0
5.0;495.0
6.0;495.0
7.0;499.0
8.0;507.0
9.0;507.0
10.0;507.0
11.0;503.0
12.0;504.0
13.0;506.0
14.0;510.0
15.0;511.0
0.0;512.0
1.0;512.0
2.0;515.0
3.0;523.0
4.0;526.0
5.0;524.0
6.0;511.0
7.0;489.0
8.0;478.0
9.0;482.0
10.0;491.0
11.0;499.0
12.0;508.0
13.0;508.0
14.0;504.0
15.0;506.0
0.0;504.0
1.0;498.0
2.0;497.0
3.0;497.0
4.0;500.0
5.0;503.0
6.0;504.0
7.0;507.0
8.0;515.0
9.0;524.0
10.0;532.0
11.0;540.0
12.0;550.0
13.0;556.0
14.0;562.0
15.0;571.0
0.0;577.0
1.0;580.0
2.0;583.0
3.0;590.0
4.0;597.0
5.0;604.0
6.0;611.0
7.0;618.0
8.0;624.0
9.0;634.0
10.0;646.0
11.0;655.0
12.0;657.0
13.0;657.0
14.0;649.0
15.0;636.0
0.0;619.0
1.0;605.0
2.0;588.0
3.0;570.0
4.0;551.0
5.0;532.0
6.0;514.0
7.0;495.0
8.0;476.0
9.0;457.0
10.0;439.0
11.0;423.0
12.0;409.0
13.0;402.0
14.0;398.0
15.0;393.0
0.0;386.0
1.0;383.0
2.0;379.0
3.0;376.0
4.0;376.0
5.0;377.0
6.0;380.0
7.0;388.0
8.0;398.0
9.0;403.0
10.0;409.0
11.0;416.0
12.0;422.0
13.0;432.0
14.0;441.0
15.0;449.0
0.0;454.0
1.0;457.0
2.0;461.0
3.0;465.0
4.0;467.0
5.0;469.0
6.0;472.0
7.0;478.0
8.0;480.0
9.0;482.0
10.0;488.0
11.0;493.0
12.0;499.0
13.0;509.0
14.0;515.0
15.0;514.0
0.0;510.0
1.0;502.0
2.0;496.0
3.0;491.0
4.0;487.0
5.0;486.0
6.0;484.0
7.0;484.0
8.0;486.0
9.0;489.0
10.0;493.0
11.0;494.0
12.0;502.0
13.0;512.0
14.0;518.0
15.0;518.0
0.0;521.0
1.0;525.0
2.0;524.0
3.0;519.0
4.0;515.0
5.0;509.0
6.0;502.0
7.0;496.0
8.0;492.0
9.0;492.0
10.0;495.0
11.0;498.0
12.0;505.0
13.0;512.0
14.0;517.0
15.0;521.0
0.0;526.0
1.0;528.0
2.0;527.0
3.0;527.0
4.0;527.0
5.0;524.0
6.0;519.0
7.0;516.0
8.0;509.0
9.0;501.0
10.0;502.0
11.0;507.0
12.0;511.0
13.0;516.0
14.0;522.0
15.0;526.0
0.0;528.0
1.0;528.0
2.0;526.0
3.0;526.0
4.0;526.0
5.0;521.0
6.0;517.0
7.0;511.0
8.0;503.0
9.0;498.0
10.0;493.0
11.0;491.0
12.0;487.0
13.0;480.0
14.0;480.0
15.0;487.0
0.0;497.0
1.0;508.0
2.0;514.0
3.0;520.0
4.0;527.0
5.0;527.0
6.0;522.0
7.0;518.0
8.0;516.0
9.0;521.0
10.0;521.0
11.0;514.0
12.0;510.0
13.0;508.0
14.0;509.0
15.0;514.0
0.0;520.0
1.0;527.0
2.0;535.0
3.0;540.0
4.0;535.0
5.0;529.0
6.0;524.0
7.0;522.0
8.0;521.0
9.0;520.0
10.0;513.0
11.0;508.0
12.0;508.0
13.0;507.0
14.0;505.0
15.0;505.0
0.0;511.0
1.0;516.0
2.0;520.0
3.0;524.0
4.0;526.0
5.0;527.0
6.0;526.0
7.0;522.0
8.0;516.0
9.0;514.0
10.0;515.0
11.0;512.0
12.0;510.0
13.0;511.0
14.0;514.0
15.0;518.0
0.0;523.0
1.0;531.0
2.0;542.0
3.0;550.0
4.0;551.0
5.0;549.0
6.0;541.0
7.0;535.0
8.0;531.0
9.0;524.0
10.0;519.0
11.0;517.0
12.0;516.0
13.0;521.0
14.0;527.0
15.0;525.0
0.0;521.0
1.0;520.0
2.0;524.0
3.0;529.0
4.0;531.0
5.0;532.0
6.0;528.0
7.0;521.0
8.0;510.0
9.0;499.0
10.0;490.0
11.0;487.0
12.0;485.0
13.0;485.0
14.0;492.0
15.0;497.0
0.0;498.0
1.0;498.0
2.0;502.0
3.0;508.0
4.0;512.0
5.0;515.0
6.0;516.0
7.0;517.0
8.0;519.0
9.0;516.0
10.0;508.0
11.0;505.0
12.0;506.0
13.0;504.0
14.0;500.0
15.0;502.0
0.0;505.0
1.0;505.0
2.0;507.0
3.0;510.0
4.0;512.0
5.0;515.0
6.0;517.0
7.0;517.0
8.0;514.0
9.0;512.0
10.0;507.0
11.0;500.0
12.0;495.0
13.0;488.0
14.0;483.0
15.0;481.0
0.0;481.0
1.0;483.0
2.0;488.0
3.0;495.0
4.0;500.0
5.0;504.0
6.0;504.0
7.0;502.0
8.0;498.0
9.0;496.0
10.0;495.0
11.0;492.0
12.0;485.0
13.0;477.0
14.0;468.0
15.0;460.0
0.0;456.0
1.0;455.0
2.0;456.0
3.0;462.0
4.0;468.0
5.0;474.0
6.0;480.0
7.0;486.0
8.0;490.0
9.0;490.0
10.0;491.0
11.0;492.0
12.0;481.0
13.0;463.0
14.0;447.0
15.0;439.0
0.0;436.0
1.0;443.0
2.0;449.0
3.0;453.0
4.0;457.0
5.0;463.0
6.0;469.0
7.0;476.0
8.0;476.0
9.0;473.0
10.0;467.0
11.0;457.0
12.0;450.0
13.0;447.0
14.0;447.0
15.0;445.0
0.0;441.0
1.0;433.0
2.0;433.0
3.0;439.0
4.0;444.0
5.0;451.0
6.0;457.0
7.0;462.0
8.0;467.0
9.0;470.0
10.0;468.0
11.0;468.0
12.0;470.0
13.0;469.0
14.0;462.0
15.0;456.0
0.0;454.0
1.0;453.0
2.0;452.0
3.0;454.0
4.0;456.0
5.0;461.0
6.0;467.0
7.0;475.0
8.0;480.0
9.0;486.0
10.0;490.0
11.0;492.0
12.0;492.0
13.0;490.0
14.0;486.0
15.0;480.0
0.0;477.0
1.0;474.0
2.0;473.0
3.0;473.0
4.0;474.0
5.0;475.0
6.0;480.0
7.0;489.0
8.0;498.0
9.0;501.0
10.0;499.0
11.0;497.0
12.0;494.0
13.0;491.0
14.0;489.0
15.0;487.0
0.0;485.0
1.0;481.0
2.0;478.0
3.0;477.0
4.0;472.0
5.0;472.0
6.0;487.0
7.0;489.0
8.0;479.0
9.0;471.0
10.0;472.0
11.0;478.0
12.0;480.0
13.0;481.0
14.0;483.0
15.0;485.0
0.0;486.0
1.0;484.0
2.0;481.0
3.0;470.0
4.0;464.0
5.0;471.0
6.0;479.0
7.0;487.0
8.0;491.0
9.0;494.0
10.0;497.0
11.0;501.0
12.0;499.0
13.0;494.0
14.0;492.0
15.0;491.0
0.0;486.0
1.0;482.0
2.0;480.0
3.0;480.0
4.0;478.0
5.0;478.0
6.0;482.0
7.0;486.0
8.0;491.0
9.0;498.0
10.0;502.0
11.0;507.0
12.0;513.0
13.0;518.0
14.0;518.0
15.0;518.0
0.0;517.0
1.0;512.0
2.0;503.0
3.0;496.0
4.0;491.0
5.0;487.0
6.0;486.0
7.0;489.0
8.0;492.0
9.0;498.0
10.0;503.0
11.0;504.0
12.0;505.0
13.0;510.0
14.0;514.0
15.0;518.0
0.0;519.0
1.0;519.0
2.0;514.0
3.0;508.0
4.0;506.0
5.0;502.0
6.0;498.0
7.0;498.0
8.0;497.0
9.0;495.0
10.0;496.0
11.0;501.0
12.0;506.0
13.0;510.0
14.0;517.0
15.0;522.0
0.0;524.0
1.0;521.0
2.0;515.0
3.0;507.0
4.0;505.0
5.0;506.0
6.0;504.0
7.0;500.0
8.0;499.0
9.0;497.0
10.0;502.0
11.0;509.0
12.0;516.0
13.0;520.0
14.0;522.0
15.0;524.0
0.0;528.0
1.0;534.0
2.0;535.0
3.0;527.0
4.0;511.0
5.0;497.0
6.0;488.0
7.0;488.0
8.0;492.0
9.0;493.0
10.0;494.0
11.0;499.0
12.0;505.0
13.0;510.0
14.0;516.0
15.0;524.0
0.0;526.0
1.0;527.0
2.0;528.0
3.0;528.0
4.0;526.0
5.0;520.0
6.0;516.0
7.0;511.0
8.0;509.0
9.0;510.0
10.0;511.0
11.0;514.0
12.0;518.0
13.0;523.0
14.0;526.0
15.0;529.0
0.0;531.0
1.0;535.0
2.0;539.0
3.0;539.0
4.0;534.0
5.0;528.0
6.0;522.0
7.0;516.0
8.0;510.0
9.0;509.0
10.0;515.0
11.0;524.0
12.0;536.0
13.0;544.0
14.0;548.0
15.0;550.0
0.0;550.0
1.0;550.0
2.0;549.0
3.0;545.0
4.0;540.0
5.0;534.0
6.0;531.0
7.0;527.0
8.0;525.0
9.0;521.0
10.0;519.0
11.0;518.0
12.0;516.0
13.0;517.0
14.0;518.0
15.0;518.0
0.0;522.0
1.0;522.0
2.0;512.0
3.0;506.0
4.0;499.0
5.0;499.0
6.0;503.0
7.0;508.0
8.0;505.0
9.0;499.0
10.0;495.0
11.0;492.0
12.0;494.0
13.0;496.0
14.0;510.0
15.0;516.0
0.0;516.0
1.0;511.0
2.0;509.0
3.0;510.0
4.0;511.0
5.0;510.0
6.0;504.0
7.0;499.0
8.0;497.0
9.0;496.0
10.0;491.0
11.0;490.0
12.0;491.0
13.0;491.0
14.0;496.0
15.0;503.0
0.0;510.0
1.0;516.0
2.0;523.0
3.0;527.0
4.0;528.0
5.0;528.0
6.0;529.0
7.0;525.0
8.0;521.0
9.0;520.0
10.0;517.0
11.0;515.0
12.0;512.0
13.0;511.0
14.0;512.0
15.0;514.0
0.0;519.0
1.0;525.0
2.0;531.0
3.0;535.0
4.0;537.0
5.0;537.0
6.0;537.0
7.0;534.0
8.0;530.0
9.0;525.0
10.0;518.0
11.0;512.0
12.0;510.0
13.0;510.0
14.0;511.0
15.0;513.0
0.0;518.0
1.0;524.0
2.0;532.0
3.0;535.0
4.0;535.0
5.0;533.0
6.0;535.0
7.0;541.0
8.0;539.0
9.0;527.0
10.0;518.0
11.0;512.0
12.0;507.0
13.0;504.0
14.0;509.0
15.0;519.0
0.0;527.0
1.0;530.0
2.0;533.0
3.0;542.0
4.0;548.0
5.0;553.0
6.0;563.0
7.0;574.0
8.0;578.0
9.0;580.0
10.0;581.0
11.0;585.0
12.0;592.0
13.0;599.0
14.0;609.0
15.0;622.0
0.0;635.0
1.0;644.0
2.0;656.0
3.0;663.0
4.0;669.0
5.0;671.0
6.0;669.0
7.0;665.0
8.0;657.0
9.0;647.0
10.0;632.0
11.0;614.0
12.0;599.0
13.0;583.0
14.0;567.0
15.0;553.0
0.0;537.0
1.0;519.0
2.0;504.0
3.0;487.0
4.0;471.0
5.0;455.0
6.0;440.0
7.0;424.0
8.0;409.0
9.0;399.0
10.0;392.0
11.0;388.0
12.0;386.0
13.0;388.0
14.0;385.0
15.0;386.0
0.0;392.0
1.0;399.0
2.0;413.0
3.0;428.0
4.0;437.0
5.0;443.0
6.0;449.0
7.0;458.0
8.0;467.0
9.0;475.0
10.0;479.0
11.0;479.0
12.0;479.0
13.0;480.0
14.0;475.0
15.0;473.0
0.0;476.0
1.0;480.0
2.0;482.0
3.0;485.0
4.0;492.0
5.0;497.0
6.0;504.0
7.0;511.0
8.0;514.0
9.0;516.0
10.0;519.0
11.0;519.0
12.0;518.0
13.0;511.0
14.0;506.0
15.0;505.0
0.0;502.0
1.0;504.0
2.0;507.0
3.0;511.0
4.0;515.0
5.0;521.0
6.0;526.0
7.0;531.0
8.0;541.0
9.0;543.0
10.0;543.0
11.0;549.0
12.0;553.0
13.0;553.0
14.0;546.0
15.0;543.0
0.0;536.0
1.0;514.0
2.0;500.0
3.0;492.0
4.0;494.0
5.0;504.0
6.0;514.0
7.0;519.0
8.0;523.0
9.0;529.0
10.0;531.0
11.0;527.0
12.0;524.0
13.0;521.0
14.0;515.0
15.0;513.0
0.0;512.0
1.0;512.0
2.0;516.0
3.0;523.0
4.0;528.0
5.0;529.0
6.0;526.0
7.0;524.0
8.0;519.0
9.0;513.0
10.0;516.0
11.0;518.0
12.0;519.0
13.0;519.0
14.0;515.0
15.0;512.0
0.0;512.0
1.0;512.0
2.0;513.0
3.0;514.0
4.0;513.0
5.0;512.0
6.0;513.0
7.0;520.0
8.0;529.0
9.0;539.0
10.0;546.0
11.0;548.0
12.0;547.0
13.0;548.0
14.0;545.0
15.0;540.0
0.0;538.0
1.0;536.0
2.0;532.0
3.0;527.0
4.0;524.0
5.0;524.0
6.0;524.0
7.0;524.0
8.0;528.0
9.0;532.0
10.0;536.0
11.0;539.0
12.0;543.0
13.0;548.0
14.0;551.0
15.0;552.0
0.0;550.0
1.0;544.0
2.0;537.0
3.0;532.0
4.0;531.0
5.0;528.0
6.0;525.0
7.0;522.0
8.0;524.0
9.0;530.0
10.0;535.0
11.0;540.0
12.0;549.0
13.0;557.0
14.0;560.0
15.0;558.0
0.0;546.0
1.0;537.0
2.0;528.0
3.0;511.0
4.0;498.0
5.0;494.0
6.0;497.0
7.0;498.0
8.0;500.0
9.0;511.0
10.0;524.0
11.0;530.0
12.0;533.0
13.0;534.0
14.0;536.0
15.0;539.0
0.0;537.0
1.0;531.0
2.0;525.0
3.0;519.0
4.0;515.0
5.0;514.0
6.0;518.0
7.0;520.0
8.0;524.0
9.0;532.0
10.0;541.0
11.0;549.0
12.0;556.0
13.0;557.0
14.0;556.0
15.0;554.0
0.0;555.0
1.0;553.0
2.0;548.0
3.0;539.0
4.0;532.0
5.0;529.0
6.0;527.0
7.0;527.0
8.0;528.0
9.0;534.0
10.0;538.0
11.0;538.0
12.0;541.0
13.0;547.0
14.0;550.0
15.0;546.0
0.0;544.0
1.0;543.0
2.0;537.0
3.0;533.0
4.0;528.0
5.0;527.0
6.0;526.0
7.0;522.0
8.0;518.0
9.0;518.0
10.0;522.0
11.0;528.0
12.0;529.0
13.0;536.0
14.0;548.0
15.0;551.0
0.0;545.0
1.0;539.0
2.0;532.0
3.0;521.0
4.0;510.0
5.0;502.0
6.0;500.0
7.0;503.0
8.0;506.0
9.0;511.0
10.0;515.0
11.0;522.0
12.0;526.0
13.0;525.0
14.0;525.0
15.0;524.0
0.0;519.0
1.0;512.0
2.0;504.0
3.0;495.0
4.0;488.0
5.0;489.0
6.0;491.0
7.0;489.0
8.0;486.0
9.0;487.0
10.0;487.0
11.0;483.0
12.0;488.0
13.0;495.0
14.0;501.0
15.0;505.0
0.0;505.0
1.0;502.0
2.0;499.0
3.0;499.0
4.0;497.0
5.0;493.0
6.0;492.0
7.0;493.0
8.0;495.0
9.0;498.0
10.0;509.0
11.0;515.0
12.0;502.0
13.0;480.0
14.0;467.0
15.0;468.0
0.0;468.0
1.0;470.0
2.0;475.0
3.0;479.0
4.0;479.0
5.0;478.0
6.0;476.0
7.0;476.0
8.0;474.0
9.0;473.0
10.0;477.0
11.0;479.0
12.0;478.0
13.0;479.0
14.0;483.0
15.0;489.0
0.0;496.0
1.0;502.0
2.0;504.0
3.0;506.0
4.0;507.0
5.0;504.0
6.0;497.0
7.0;492.0
8.0;490.0
9.0;489.0
10.0;489.0
11.0;490.0
12.0;491.0
13.0;492.0
14.0;497.0
15.0;502.0
0.0;508.0
1.0;513.0
2.0;515.0
3.0;515.0
4.0;513.0
5.0;510.0
6.0;505.0
7.0;502.0
8.0;498.0
9.0;492.0
10.0;486.0
11.0;486.0
12.0;493.0
13.0;498.0
14.0;501.0
15.0;504.0
0.0;504.0
1.0;504.0
2.0;508.0
3.0;510.0
4.0;514.0
5.0;516.0
6.0;519.0
7.0;515.0
8.0;503.0
9.0;491.0
10.0;483.0
11.0;478.0
12.0;480.0
13.0;483.0
14.0;487.0
15.0;491.0
0.0;498.0
1.0;502.0
2.0;508.0
3.0;513.0
4.0;516.0
5.0;515.0
6.0;516.0
7.0;514.0
8.0;507.0
9.0;502.0
10.0;498.0
11.0;495.0
12.0;492.0
13.0;490.0
14.0;492.0
15.0;494.0
0.0;498.0
1.0;506.0
2.0;514.0
3.0;519.0
4.0;524.0
5.0;528.0
6.0;524.0
7.0;508.0
8.0;495.0
9.0;487.0
10.0;483.0
11.0;478.0
12.0;475.0
13.0;477.0
14.0;485.0
15.0;494.0
0.0;500.0
1.0;506.0
2.0;509.0
3.0;513.0
4.0;520.0
5.0;525.0
6.0;525.0
7.0;524.0
8.0;520.0
9.0;515.0
10.0;508.0
11.0;503.0
12.0;499.0
13.0;499.0
14.0;503.0
15.0;507.0
0.0;507.0
1.0;510.0
2.0;513.0
3.0;510.0
4.0;511.0
5.0;514.0
6.0;517.0
7.0;518.0
8.0;519.0
9.0;519.0
10.0;515.0
11.0;507.0
12.0;498.0
13.0;493.0
14.0;490.0
15.0;491.0
0.0;495.0
1.0;497.0
2.0;500.0
3.0;504.0
4.0;509.0
5.0;512.0
6.0;516.0
7.0;519.0
8.0;520.0
9.0;521.0
10.0;521.0
11.0;518.0
12.0;513.0
13.0;506.0
14.0;497.0
15.0;493.0
0.0;492.0
1.0;497.0
2.0;505.0
3.0;512.0
4.0;518.0
5.0;526.0
6.0;537.0
7.0;540.0
8.0;536.0
9.0;533.0
10.0;527.0
11.0;518.0
12.0;510.0
13.0;506.0
14.0;500.0
15.0;495.0
0.0;491.0
1.0;490.0
2.0;488.0
3.0;493.0
4.0;498.0
5.0;507.0
6.0;512.0
7.0;516.0
8.0;523.0
9.0;525.0
10.0;527.0
11.0;526.0
12.0;523.0
13.0;518.0
14.0;514.0
15.0;511.0
0.0;508.0
1.0;509.0
2.0;507.0
3.0;505.0
4.0;507.0
5.0;512.0
6.0;518.0
7.0;526.0
8.0;531.0
9.0;531.0
10.0;532.0
11.0;533.0
12.0;531.0
13.0;530.0
14.0;529.0
15.0;524.0
0.0;519.0
1.0;517.0
2.0;513.0
3.0;509.0
4.0;508.0
5.0;513.0
6.0;520.0
7.0;530.0
8.0;532.0
9.0;531.0
10.0;529.0
11.0;528.0
12.0;527.0
13.0;521.0
14.0;515.0
15.0;512.0
0.0;510.0
1.0;505.0
2.0;497.0
3.0;492.0
4.0;491.0
5.0;498.0
6.0;509.0
7.0;515.0
8.0;512.0
9.0;506.0
10.0;503.0
11.0;498.0
12.0;494.0
13.0;489.0
14.0;484.0
15.0;480.0
0.0;479.0
1.0;480.0
2.0;480.0
3.0;471.0
4.0;467.0
5.0;473.0
6.0;478.0
7.0;484.0
8.0;490.0
9.0;496.0
10.0;501.0
11.0;504.0
12.0;505.0
13.0;509.0
14.0;509.0
15.0;506.0
0.0;504.0
1.0;502.0
2.0;502.0
3.0;501.0
4.0;497.0
5.0;497.0
6.0;498.0
7.0;505.0
8.0;514.0
9.0;517.0
10.0;518.0
11.0;518.0
12.0;518.0
13.0;518.0
14.0;515.0
15.0;511.0
0.0;505.0
1.0;501.0
2.0;495.0
3.0;488.0
4.0;485.0
5.0;488.0
6.0;493.0
7.0;499.0
8.0;509.0
9.0;517.0
10.0;522.0
11.0;525.0
12.0;526.0
13.0;524.0
14.0;521.0
15.0;517.0
0.0;512.0
1.0;508.0
2.0;506.0
3.0;499.0
4.0;495.0
5.0;495.0
6.0;497.0
7.0;499.0
8.0;505.0
9.0;510.0
10.0;513.0
11.0;519.0
12.0;523.0
13.0;526.0
14.0;526.0
15.0;527.0
0.0;527.0
1.0;526.0
2.0;527.0
3.0;524.0
4.0;518.0
5.0;512.0
6.0;511.0
7.0;515.0
8.0;521.0
9.0;520.0
10.0;522.0
11.0;527.0
12.0;533.0
13.0;535.0
14.0;536.0
15.0;543.0
0.0;547.0
1.0;550.0
2.0;552.0
3.0;558.0
4.0;562.0
5.0;571.0
6.0;581.0
7.0;594.0
8.0;607.0
9.0;621.0
10.0;633.0
11.0;644.0
12.0;653.0
13.0;662.0
14.0;663.0
15.0;660.0
0.0;659.0
1.0;649.0
2.0;631.0
3.0;608.0
4.0;591.0
5.0;574.0
6.0;558.0
7.0;548.0
8.0;540.0
9.0;528.0
10.0;509.0
11.0;489.0
12.0;468.0
13.0;448.0
14.0;430.0
15.0;413.0
0.0;400.0
1.0;391.0
2.0;388.0
3.0;385.0
4.0;383.0
5.0;383.0
6.0;383.0
7.0;387.0
8.0;398.0
9.0;407.0
10.0;413.0
11.0;418.0
12.0;419.0
13.0;421.0
14.0;434.0
15.0;451.0
0.0;462.0
1.0;465.0
2.0;466.0
3.0;463.0
4.0;455.0
5.0;453.0
6.0;453.0
7.0;452.0
8.0;456.0
9.0;462.0
10.0;470.0
11.0;480.0
12.0;490.0
13.0;502.0
14.0;512.0
15.0;518.0
0.0;525.0
1.0;534.0
2.0;537.0
3.0;537.0
4.0;531.0
5.0;519.0
6.0;510.0
7.0;499.0
8.0;492.0
9.0;489.0
10.0;489.0
11.0;490.0
12.0;500.0
13.0;512.0
14.0;520.0
15.0;529.0
0.0;538.0
1.0;541.0
2.0;539.0
3.0;539.0
4.0;539.0
5.0;533.0
6.0;525.0
7.0;518.0
8.0;510.0
9.0;504.0
10.0;502.0
11.0;502.0
12.0;502.0
13.0;506.0
14.0;512.0
15.0;520.0
0.0;528.0
1.0;531.0
2.0;531.0
3.0;532.0
4.0;531.0
5.0;529.0
6.0;525.0
7.0;521.0
8.0;520.0
9.0;520.0
10.0;519.0
11.0;521.0
12.0;519.0
13.0;519.0
14.0;525.0
15.0;533.0
0.0;538.0
1.0;545.0
2.0;551.0
3.0;552.0
4.0;550.0
5.0;542.0
6.0;532.0
7.0;522.0
8.0;514.0
9.0;512.0
10.0;510.0
11.0;511.0
12.0;517.0
13.0;520.0
14.0;526.0
15.0;534.0
0.0;538.0
1.0;545.0
2.0;549.0
3.0;545.0
4.0;535.0
5.0;530.0
6.0;531.0
7.0;531.0
8.0;531.0
9.0;531.0
10.0;530.0
11.0;528.0
12.0;528.0
13.0;531.0
14.0;535.0
15.0;540.0
0.0;543.0
1.0;546.0
2.0;551.0
3.0;554.0
4.0;555.0
5.0;553.0
6.0;549.0
7.0;545.0
8.0;540.0
9.0;536.0
10.0;534.0
11.0;531.0
12.0;531.0
13.0;532.0
14.0;532.0
15.0;534.0
0.0;540.0
1.0;547.0
2.0;554.0
3.0;560.0
4.0;565.0
5.0;569.0
6.0;572.0
7.0;572.0
8.0;567.0
9.0;556.0
10.0;545.0
11.0;534.0
12.0;526.0
13.0;524.0
14.0;524.0
15.0;526.0
0.0;535.0
1.0;543.0
2.0;551.0
3.0;562.0
4.0;563.0
5.0;557.0
6.0;554.0
7.0;556.0
8.0;560.0
9.0;561.0
10.0;555.0
11.0;547.0
12.0;538.0
13.0;530.0
14.0;527.0
15.0;525.0
0.0;520.0
1.0;520.0
2.0;524.0
3.0;530.0
4.0;540.0
5.0;554.0
6.0;561.0
7.0;560.0
8.0;557.0
9.0;554.0
10.0;549.0
11.0;543.0
12.0;538.0
13.0;535.0
14.0;536.0
15.0;537.0
0.0;538.0
1.0;539.0
2.0;544.0
3.0;548.0
4.0;550.0
5.0;551.0
6.0;550.0
7.0;548.0
8.0;547.0
9.0;545.0
10.0;542.0
11.0;539.0
12.0;534.0
13.0;531.0
14.0;528.0
15.0;527.0
0.0;527.0
1.0;526.0
2.0;526.0
3.0;529.0
4.0;533.0
5.0;535.0
6.0;533.0
7.0;533.0
8.0;536.0
9.0;537.0
10.0;536.0
11.0;530.0
12.0;522.0
13.0;515.0
14.0;509.0
15.0;505.0
0.0;505.0
1.0;508.0
2.0;508.0
3.0;512.0
4.0;517.0
5.0;519.0
6.0;521.0
7.0;521.0
8.0;521.0
9.0;519.0
10.0;519.0
11.0;518.0
12.0;511.0
13.0;502.0
14.0;494.0
15.0;488.0
0.0;482.0
1.0;480.0
2.0;479.0
3.0;481.0
4.0;493.0
5.0;503.0
6.0;510.0
7.0;515.0
8.0;518.0
9.0;518.0
10.0;514.0
11.0;509.0
12.0;503.0
13.0;500.0
14.0;499.0
15.0;499.0
0.0;500.0
1.0;505.0
2.0;501.0
3.0;485.0
4.0;472.0
5.0;455.0
6.0;446.0
7.0;450.0
8.0;456.0
9.0;462.0
10.0;467.0
11.0;469.0
12.0;471.0
13.0;468.0
14.0;461.0
15.0;454.0
0.0;444.0
1.0;436.0
2.0;436.0
3.0;441.0
4.0;448.0
5.0;455.0
6.0;462.0
7.0;469.0
8.0;477.0
9.0;482.0
10.0;482.0
11.0;482.0
12.0;484.0
13.0;487.0
14.0;491.0
15.0;493.0
0.0;487.0
1.0;482.0
2.0;478.0
3.0;476.0
4.0;476.0
5.0;478.0
6.0;483.0
7.0;488.0
8.0;491.0
9.0;494.0
10.0;497.0
11.0;499.0
12.0;499.0
13.0;497.0
14.0;494.0
15.0;489.0
0.0;483.0
1.0;481.0
2.0;480.0
3.0;483.0
4.0;484.0
5.0;486.0
6.0;490.0
7.0;498.0
8.0;506.0
9.0;511.0
10.0;513.0
11.0;513.0
12.0;512.0
13.0;511.0
14.0;510.0
15.0;505.0
0.0;500.0
1.0;494.0
2.0;487.0
3.0;484.0
4.0;484.0
5.0;486.0
6.0;488.0
7.0;496.0
8.0;502.0
9.0;505.0
10.0;507.0
11.0;511.0
12.0;511.0
13.0;510.0
14.0;510.0
15.0;510.0
0.0;508.0
1.0;505.0
2.0;504.0
3.0;498.0
4.0;489.0
5.0;486.0
6.0;485.0
7.0;480.0
8.0;476.0
9.0;476.0
10.0;479.0
11.0;479.0
12.0;481.0
13.0;484.0
14.0;487.0
15.0;492.0
0.0;494.0
1.0;487.0
2.0;481.0
3.0;477.0
4.0;472.0
5.0;469.0
6.0;472.0
7.0;471.0
8.0;476.0
9.0;487.0
10.0;497.0
11.0;505.0
12.0;510.0
13.0;515.0
14.0;515.0
15.0;512.0
0.0;508.0
1.0;502.0
2.0;497.0
3.0;493.0
4.0;490.0
5.0;488.0
6.0;486.0
7.0;482.0
8.0;483.0
9.0;489.0
10.0;496.0
11.0;498.0
12.0;501.0
13.0;506.0
14.0;508.0
15.0;508.0
0.0;507.0
1.0;506.0
2.0;502.0
3.0;497.0
4.0;494.0
5.0;492.0
6.0;492.0
7.0;495.0
8.0;497.0
9.0;500.0
10.0;504.0
11.0;508.0
12.0;511.0
13.0;513.0
14.0;514.0
15.0;514.0
0.0;514.0
1.0;512.0
2.0;508.0
3.0;503.0
4.0;500.0
5.0;497.0
6.0;492.0
7.0;488.0
8.0;488.0
9.0;492.0
10.0;502.0
11.0;512.0
12.0;522.0
13.0;531.0
14.0;534.0
15.0;534.0
0.0;528.0
1.0;521.0
2.0;513.0
3.0;507.0
4.0;503.0
5.0;504.0
6.0;507.0
7.0;513.0
8.0;517.0
9.0;523.0
10.0;528.0
11.0;528.0
12.0;520.0
13.0;513.0
14.0;507.0
15.0;501.0
0.0;499.0
1.0;494.0
2.0;494.0
3.0;496.0
4.0;493.0
5.0;490.0
6.0;491.0
7.0;491.0
8.0;490.0
9.0;491.0
10.0;493.0
11.0;496.0
12.0;503.0
13.0;510.0
14.0;515.0
15.0;523.0
0.0;530.0
1.0;531.0
2.0;531.0
3.0;529.0
4.0;527.0
5.0;522.0
6.0;519.0
7.0;517.0
8.0;515.0
9.0;513.0
10.0;514.0
11.0;515.0
12.0;515.0
13.0;519.0
14.0;525.0
15.0;531.0
0.0;537.0
1.0;543.0
2.0;540.0
3.0;537.0
4.0;532.0
5.0;526.0
6.0;520.0
7.0;513.0
8.0;506.0
9.0;504.0
10.0;504.0
11.0;508.0
12.0;508.0
13.0;510.0
14.0;512.0
15.0;515.0
0.0;519.0
1.0;522.0
2.0;523.0
3.0;521.0
4.0;520.0
5.0;519.0
6.0;515.0
7.0;510.0
8.0;504.0
9.0;496.0
10.0;489.0
11.0;487.0
12.0;488.0
13.0;490.0
14.0;492.0
15.0;496.0
0.0;502.0
1.0;509.0
2.0;515.0
3.0;517.0
4.0;515.0
5.0;513.0
6.0;512.0
7.0;507.0
8.0;504.0
9.0;502.0
10.0;499.0
11.0;500.0
12.0;502.0
13.0;498.0
14.0;497.0
15.0;498.0
0.0;503.0
1.0;507.0
2.0;514.0
3.0;524.0
4.0;532.0
5.0;534.0
6.0;531.0
7.0;524.0
8.0;514.0
9.0;511.0
10.0;508.0
11.0;508.0
12.0;506.0
13.0;502.0
14.0;494.0
15.0;489.0
0.0;490.0
1.0;487.0
2.0;486.0
3.0;486.0
4.0;489.0
5.0;491.0
6.0;491.0
7.0;487.0
8.0;479.0
9.0;473.0
10.0;473.0
11.0;474.0
12.0;474.0
13.0;476.0
14.0;480.0
15.0;484.0
0.0;489.0
1.0;494.0
2.0;500.0
3.0;507.0
4.0;513.0
5.0;519.0
6.0;518.0
7.0;514.0
8.0;512.0
9.0;510.0
10.0;509.0
11.0;507.0
12.0;504.0
13.0;504.0
14.0;505.0
15.0;508.0
0.0;509.0
1.0;514.0
2.0;521.0
3.0;527.0
4.0;532.0
5.0;535.0
6.0;536.0
7.0;536.0
8.0;536.0
9.0;534.0
10.0;532.0
11.0;533.0
12.0;535.0
13.0;537.0
14.0;542.0
15.0;548.0
0.0;556.0
1.0;566.0
2.0;579.0
3.0;592.0
4.0;605.0
5.0;619.0
6.0;631.0
7.0;639.0
8.0;644.0
9.0;648.0
10.0;652.0
11.0;656.0
12.0;656.0
13.0;648.0
14.0;639.0
15.0;628.0
0.0;617.0
1.0;610.0
2.0;609.0
3.0;603.0
4.0;586.0
5.0;569.0
6.0;558.0
7.0;543.0
8.0;524.0
9.0;504.0
10.0;481.0
11.0;452.0
12.0;423.0
13.0;397.0
14.0;379.0
15.0;368.0
0.0;363.0
1.0;361.0
2.0;362.0
3.0;373.0
4.0;387.0
5.0;399.0
6.0;409.0
7.0;420.0
8.0;427.0
9.0;432.0
10.0;436.0
11.0;439.0
12.0;441.0
13.0;446.0
14.0;447.0
15.0;446.0
0.0;449.0
1.0;452.0
2.0;455.0
3.0;460.0
4.0;466.0
5.0;475.0
6.0;484.0
7.0;495.0
8.0;506.0
9.0;514.0
10.0;522.0
11.0;519.0
12.0;508.0
13.0;496.0
14.0;485.0
15.0;483.0
0.0;486.0
1.0;495.0
2.0;501.0
3.0;496.0
4.0;489.0
5.0;494.0
6.0;506.0
7.0;514.0
8.0;519.0
9.0;521.0
10.0;519.0
11.0;519.0
12.0;516.0
13.0;513.0
14.0;504.0
15.0;496.0
0.0;493.0
1.0;494.0
2.0;499.0
3.0;502.0
4.0;505.0
5.0;510.0
6.0;516.0
7.0;524.0
8.0;529.0
9.0;532.0
10.0;534.0
11.0;535.0
12.0;533.0
13.0;530.0
14.0;526.0
15.0;524.0
0.0;522.0
1.0;519.0
2.0;514.0
3.0;515.0
4.0;516.0
5.0;517.0
6.0;521.0
7.0;526.0
8.0;530.0
9.0;534.0
10.0;536.0
11.0;537.0
12.0;539.0
13.0;538.0
14.0;536.0
15.0;531.0
0.0;526.0
1.0;519.0
2.0;518.0
3.0;519.0
4.0;519.0
5.0;519.0
6.0;519.0
7.0;523.0
8.0;528.0
9.0;531.0
10.0;537.0
11.0;542.0
12.0;544.0
13.0;543.0
14.0;544.0
15.0;543.0
0.0;539.0
1.0;535.0
2.0;530.0
3.0;524.0
4.0;519.0
5.0;518.0
6.0;521.0
7.0;527.0
8.0;528.0
9.0;528.0
10.0;527.0
11.0;524.0
12.0;520.0
13.0;519.0
14.0;521.0
15.0;521.0
0.0;518.0
1.0;516.0
2.0;519.0
3.0;524.0
4.0;526.0
5.0;526.0
6.0;526.0
7.0;527.0
8.0;524.0
9.0;524.0
10.0;530.0
11.0;534.0
12.0;537.0
13.0;541.0
14.0;539.0
15.0;528.0
0.0;518.0
1.0;514.0
2.0;514.0
3.0;516.0
4.0;517.0
5.0;518.0
6.0;518.0
7.0;514.0
8.0;509.0
9.0;509.0
10.0;514.0
11.0;521.0
12.0;527.0
13.0;529.0
14.0;529.0
15.0;531.0
0.0;531.0
1.0;528.0
2.0;525.0
3.0;521.0
4.0;517.0
5.0;516.0
6.0;519.0
7.0;519.0
8.0;522.0
9.0;528.0
10.0;536.0
11.0;542.0
12.0;548.0
13.0;556.0
14.0;557.0
15.0;554.0
0.0;554.0
1.0;555.0
2.0;553.0
3.0;550.0
4.0;549.0
5.0;542.0
6.0;530.0
7.0;528.0
8.0;528.0
9.0;527.0
10.0;531.0
11.0;536.0
12.0;537.0
13.0;536.0
14.0;537.0
15.0;536.0
0.0;535.0
1.0;540.0
2.0;541.0
3.0;538.0
4.0;533.0
5.0;527.0
6.0;526.0
7.0;524.0
8.0;526.0
9.0;527.0
10.0;528.0
11.0;532.0
12.0;537.0
13.0;541.0
14.0;543.0
15.0;542.0
0.0;539.0
1.0;536.0
2.0;534.0
3.0;531.0
4.0;527.0
5.0;526.0
6.0;521.0
7.0;515.0
8.0;510.0
9.0;509.0
10.0;510.0
11.0;513.0
12.0;518.0
13.0;523.0
14.0;524.0
15.0;527.0
0.0;528.0
1.0;527.0
2.0;526.0
3.0;524.0
4.0;518.0
5.0;511.0
6.0;509.0
7.0;507.0
8.0;505.0
9.0;504.0
10.0;502.0
11.0;502.0
12.0;504.0
13.0;506.0
14.0;505.0
15.0;507.0
0.0;509.0
1.0;510.0
2.0;511.0
3.0;509.0
4.0;504.0
5.0;499.0
6.0;497.0
7.0;496.0
8.0;498.0
9.0;501.0
10.0;505.0
11.0;506.0
12.0;503.0
13.0;502.0
14.0;497.0
15.0;489.0
0.0;487.0
1.0;491.0
2.0;489.0
3.0;486.0
4.0;490.0
5.0;496.0
6.0;494.0
7.0;487.0
8.0;481.0
9.0;478.0
10.0;477.0
11.0;476.0
12.0;475.0
13.0;475.0
14.0;475.0
15.0;479.0
0.0;484.0
1.0;489.0
2.0;487.0
3.0;485.0
4.0;486.0
5.0;485.0
6.0;484.0
7.0;481.0
8.0;477.0
9.0;472.0
10.0;471.0
11.0;475.0
12.0;481.0
13.0;485.0
14.0;491.0
15.0;500.0
0.0;507.0
1.0;511.0
2.0;513.0
3.0;511.0
4.0;507.0
5.0;504.0
6.0;498.0
7.0;490.0
8.0;484.0
9.0;480.0
10.0;479.0
11.0;478.0
12.0;479.0
13.0;480.0
14.0;483.0
15.0;489.0
0.0;493.0
1.0;494.0
2.0;499.0
3.0;503.0
4.0;507.0
5.0;510.0
6.0;509.0
7.0;505.0
8.0;502.0
9.0;499.0
10.0;495.0
11.0;491.0
12.0;492.0
13.0;493.0
14.0;494.0
15.0;501.0
0.0;508.0
1.0;511.0
2.0;513.0
3.0;517.0
4.0;520.0
5.0;522.0
6.0;521.0
7.0;519.0
8.0;508.0
9.0;501.0
10.0;488.0
11.0;476.0
12.0;470.0
13.0;470.0
14.0;474.0
15.0;481.0
0.0;487.0
1.0;495.0
2.0;504.0
3.0;510.0
4.0;514.0
5.0;514.0
6.0;514.0
7.0;516.0
8.0;508.0
9.0;493.0
10.0;484.0
11.0;480.0
12.0;479.0
13.0;482.0
14.0;487.0
15.0;490.0
0.0;493.0
1.0;495.0
2.0;500.0
3.0;506.0
4.0;510.0
5.0;511.0
6.0;511.0
7.0;510.0
8.0;509.0
9.0;507.0
10.0;505.0
11.0;504.0
12.0;503.0
13.0;500.0
14.0;501.0
15.0;505.0
0.0;506.0
1.0;508.0
2.0;514.0
3.0;516.0
4.0;516.0
5.0;513.0
6.0;513.0
7.0;511.0
8.0;512.0
9.0;512.0
10.0;508.0
11.0;500.0
12.0;495.0
13.0;489.0
14.0;488.0
15.0;491.0
0.0;496.0
1.0;500.0
2.0;505.0
3.0;514.0
4.0;515.0
5.0;516.0
6.0;519.0
7.0;517.0
8.0;517.0
9.0;518.0
10.0;516.0
11.0;508.0
12.0;498.0
13.0;493.0
14.0;492.0
15.0;491.0
0.0;494.0
1.0;494.0
2.0;496.0
3.0;504.0
4.0;511.0
5.0;517.0
6.0;526.0
7.0;529.0
8.0;528.0
9.0;520.0
10.0;517.0
11.0;516.0
12.0;512.0
13.0;505.0
14.0;501.0
15.0;499.0
0.0;499.0
1.0;504.0
2.0;513.0
3.0;523.0
4.0;533.0
5.0;542.0
6.0;543.0
7.0;536.0
8.0;518.0
9.0;501.0
10.0;501.0
11.0;504.0
12.0;501.0
13.0;499.0
14.0;499.0
15.0;500.0
0.0;504.0
1.0;507.0
2.0;511.0
3.0;508.0
4.0;507.0
5.0;506.0
6.0;511.0
7.0;520.0
8.0;526.0
9.0;529.0
10.0;531.0
11.0;530.0
12.0;525.0
13.0;519.0
14.0;514.0
15.0;513.0
0.0;514.0
1.0;512.0
2.0;507.0
3.0;505.0
4.0;505.0
5.0;512.0
6.0;521.0
7.0;527.0
8.0;533.0
9.0;538.0
10.0;540.0
11.0;542.0
12.0;542.0
13.0;538.0
14.0;533.0
15.0;526.0
0.0;521.0
1.0;516.0
2.0;512.0
3.0;511.0
4.0;511.0
5.0;512.0
6.0;517.0
7.0;523.0
8.0;528.0
9.0;535.0
10.0;539.0
11.0;540.0
12.0;539.0
13.0;537.0
14.0;531.0
15.0;524.0
0.0;516.0
1.0;506.0
2.0;499.0
3.0;499.0
4.0;499.0
5.0;501.0
6.0;507.0
7.0;510.0
8.0;507.0
9.0;499.0
10.0;496.0
11.0;499.0
12.0;500.0
13.0;498.0
14.0;499.0
15.0;502.0
0.0;503.0
1.0;503.0
2.0;495.0
3.0;488.0
4.0;491.0
5.0;492.0
6.0;493.0
7.0;496.0
8.0;501.0
9.0;507.0
10.0;512.0
11.0;512.0
12.0;515.0
13.0;515.0
14.0;514.0
15.0;512.0
0.0;514.0
1.0;516.0
2.0;513.0
3.0;507.0
4.0;499.0
5.0;490.0
6.0;482.0
7.0;481.0
8.0;488.0
9.0;495.0
10.0;497.0
11.0;494.0
12.0;492.0
13.0;493.0
14.0;496.0
15.0;499.0
0.0;500.0
1.0;497.0
2.0;496.0
3.0;492.0
4.0;492.0
5.0;494.0
6.0;496.0
7.0;497.0
8.0;503.0
9.0;508.0
10.0;510.0
11.0;514.0
12.0;519.0
13.0;522.0
14.0;523.0
15.0;523.0
0.0;519.0
1.0;513.0
2.0;510.0
3.0;506.0
4.0;502.0
5.0;500.0
6.0;500.0
7.0;501.0
8.0;503.0
9.0;508.0
10.0;516.0
11.0;524.0
12.0;532.0
13.0;536.0
14.0;539.0
15.0;534.0
0.0;532.0
1.0;529.0
2.0;523.0
3.0;519.0
4.0;519.0
5.0;519.0
6.0;521.0
7.0;525.0
8.0;531.0
9.0;538.0
10.0;544.0
11.0;551.0
12.0;559.0
13.0;569.0
14.0;578.0
15.0;586.0
0.0;598.0
1.0;608.0
2.0;618.0
3.0;624.0
4.0;628.0
5.0;630.0
6.0;630.0
7.0;631.0
8.0;638.0
9.0;645.0
10.0;651.0
11.0;657.0
12.0;657.0
13.0;647.0
14.0;630.0
15.0;615.0
0.0;599.0
1.0;588.0
2.0;576.0
3.0;560.0
4.0;543.0
5.0;524.0
6.0;498.0
7.0;470.0
8.0;447.0
9.0;425.0
10.0;406.0
11.0;393.0
12.0;387.0
13.0;384.0
14.0;383.0
15.0;388.0
0.0;390.0
1.0;392.0
2.0;395.0
3.0;399.0
4.0;402.0
5.0;407.0
6.0;411.0
7.0;411.0
8.0;414.0
9.0;420.0
10.0;429.0
11.0;439.0
12.0;447.0
13.0;456.0
14.0;464.0
15.0;474.0
0.0;482.0
1.0;484.0
2.0;485.0
3.0;489.0
4.0;487.0
5.0;484.0
6.0;482.0
7.0;484.0
8.0;486.0
9.0;487.0
10.0;489.0
11.0;492.0
12.0;497.0
13.0;503.0
14.0;510.0
15.0;515.0
0.0;522.0
1.0;527.0
2.0;530.0
3.0;529.0
4.0;528.0
5.0;524.0
6.0;518.0
7.0;511.0
8.0;505.0
9.0;502.0
10.0;502.0
11.0;502.0
12.0;505.0
13.0;512.0
14.0;520.0
15.0;525.0
0.0;528.0
1.0;531.0
2.0;532.0
3.0;526.0
4.0;527.0
5.0;530.0
6.0;528.0
7.0;526.0
8.0;519.0
9.0;509.0
10.0;499.0
11.0;496.0
12.0;499.0
13.0;504.0
14.0;509.0
15.0;508.0
0.0;509.0
1.0;514.0
2.0;521.0
3.0;526.0
4.0;529.0
5.0;530.0
6.0;525.0
7.0;516.0
8.0;512.0
9.0;511.0
10.0;508.0
11.0;510.0
12.0;515.0
13.0;515.0
14.0;513.0
15.0;514.0
0.0;519.0
1.0;521.0
2.0;525.0
3.0;528.0
4.0;528.0
5.0;531.0
6.0;531.0
7.0;530.0
8.0;525.0
9.0;521.0
10.0;515.0
11.0;511.0
12.0;512.0
13.0;514.0
14.0;516.0
15.0;523.0
0.0;529.0
1.0;529.0
2.0;531.0
3.0;531.0
4.0;532.0
5.0;530.0
6.0;525.0
7.0;522.0
8.0;520.0
9.0;517.0
10.0;514.0
11.0;511.0
12.0;507.0
13.0;507.0
14.0;508.0
15.0;510.0
0.0;515.0
1.0;523.0
2.0;529.0
3.0;537.0
4.0;541.0
5.0;540.0
6.0;535.0
7.0;527.0
8.0;518.0
9.0;512.0
10.0;514.0
11.0;515.0
12.0;513.0
13.0;511.0
14.0;512.0
15.0;514.0
0.0;518.0
1.0;530.0
2.0;537.0
3.0;536.0
4.0;532.0
5.0;526.0
6.0;522.0
7.0;522.0
8.0;516.0
9.0;512.0
10.0;513.0
11.0;511.0
12.0;509.0
13.0;507.0
14.0;508.0
15.0;510.0
0.0;511.0
1.0;515.0
2.0;521.0
3.0;527.0
4.0;531.0
5.0;536.0
6.0;540.0
7.0;542.0
8.0;544.0
9.0;541.0
10.0;539.0
11.0;540.0
12.0;537.0
13.0;527.0
14.0;519.0
15.0;514.0
0.0;508.0
1.0;506.0
2.0;513.0
3.0;521.0
4.0;528.0
5.0;535.0
6.0;539.0
7.0;542.0
8.0;542.0
9.0;542.0
10.0;537.0
11.0;533.0
12.0;531.0
13.0;523.0
14.0;518.0
15.0;518.0
0.0;517.0
1.0;515.0
2.0;516.0
3.0;524.0
4.0;533.0
5.0;541.0
6.0;546.0
7.0;546.0
8.0;543.0
9.0;538.0
10.0;534.0
11.0;529.0
12.0;523.0
13.0;518.0
14.0;514.0
15.0;512.0
0.0;511.0
1.0;511.0
2.0;509.0
3.0;509.0
4.0;512.0
5.0;515.0
6.0;517.0
7.0;518.0
8.0;518.0
9.0;519.0
10.0;520.0
11.0;516.0
12.0;508.0
13.0;503.0
14.0;498.0
15.0;494.0
0.0;493.0
1.0;495.0
2.0;498.0
3.0;499.0
4.0;500.0
5.0;502.0
6.0;502.0
7.0;502.0
8.0;509.0
9.0;513.0
10.0;511.0
11.0;500.0
12.0;485.0
13.0;476.0
14.0;468.0
15.0;463.0
0.0;462.0
1.0;464.0
2.0;464.0
3.0;462.0
4.0;460.0
5.0;465.0
6.0;472.0
7.0;479.0
8.0;485.0
9.0;489.0
10.0;490.0
11.0;489.0
12.0;488.0
13.0;483.0
14.0;473.0
15.0;467.0
0.0;463.0
1.0;462.0
2.0;461.0
3.0;464.0
4.0;467.0
5.0;469.0
6.0;474.0
7.0;481.0
8.0;486.0
9.0;489.0
10.0;492.0
11.0;493.0
12.0;492.0
13.0;489.0
14.0;483.0
15.0;477.0
0.0;474.0
1.0;472.0
2.0;469.0
3.0;468.0
4.0;469.0
5.0;472.0
6.0;480.0
7.0;487.0
8.0;491.0
9.0;492.0
10.0;494.0
11.0;494.0
12.0;494.0
13.0;496.0
14.0;495.0
15.0;489.0
0.0;486.0
1.0;484.0
2.0;482.0
3.0;481.0
4.0;481.0
5.0;480.0
6.0;481.0
7.0;482.0
8.0;489.0
9.0;496.0
10.0;500.0
11.0;500.0
12.0;503.0
13.0;506.0
14.0;499.0
15.0;489.0
0.0;481.0
1.0;477.0
2.0;475.0
3.0;475.0
4.0;473.0
5.0;473.0
6.0;476.0
7.0;475.0
8.0;482.0
9.0;488.0
10.0;490.0
11.0;492.0
12.0;497.0
13.0;499.0
14.0;495.0
15.0;487.0
0.0;479.0
1.0;473.0
2.0;471.0
3.0;467.0
4.0;468.0
5.0;477.0
6.0;482.0
7.0;481.0
8.0;482.0
9.0;486.0
10.0;489.0
11.0;493.0
12.0;497.0
13.0;501.0
14.0;501.0
15.0;500.0
0.0;499.0
1.0;501.0
2.0;502.0
3.0;503.0
4.0;502.0
5.0;495.0
6.0;490.0
7.0;488.0
8.0;482.0
9.0;473.0
10.0;462.0
11.0;460.0
12.0;470.0
13.0;479.0
14.0;483.0
15.0;487.0
0.0;491.0
1.0;493.0
2.0;491.0
3.0;490.0
4.0;487.0
5.0;484.0
6.0;483.0
7.0;484.0
8.0;484.0
9.0;485.0
10.0;491.0
11.0;498.0
12.0;506.0
13.0;512.0
14.0;513.0
15.0;511.0
0.0;510.0
1.0;508.0
2.0;505.0
3.0;499.0
4.0;497.0
5.0;494.0
6.0;491.0
7.0;490.0
8.0;492.0
9.0;494.0
10.0;499.0
11.0;506.0
12.0;511.0
13.0;516.0
14.0;520.0
15.0;520.0
0.0;519.0
1.0;523.0
2.0;523.0
3.0;517.0
4.0;512.0
5.0;508.0
6.0;504.0
7.0;502.0
8.0;504.0
9.0;504.0
10.0;504.0
11.0;508.0
12.0;514.0
13.0;519.0
14.0;524.0
15.0;527.0
0.0;528.0
1.0;529.0
2.0;527.0
3.0;524.0
4.0;517.0
5.0;507.0
6.0;498.0
7.0;494.0
8.0;491.0
9.0;488.0
10.0;488.0
11.0;494.0
12.0;502.0
13.0;508.0
14.0;516.0
15.0;521.0
0.0;523.0
1.0;517.0
2.0;510.0
3.0;506.0
4.0;502.0
5.0;496.0
6.0;492.0
7.0;488.0
8.0;487.0
9.0;487.0
10.0;490.0
11.0;491.0
12.0;495.0
13.0;502.0
14.0;507.0
15.0;514.0
0.0;525.0
1.0;537.0
2.0;545.0
3.0;546.0
4.0;541.0
5.0;527.0
6.0;516.0
7.0;509.0
8.0;505.0
9.0;502.0
10.0;502.0
11.0;504.0
12.0;506.0
13.0;511.0
14.0;518.0
15.0;522.0
0.0;528.0
1.0;535.0
2.0;539.0
3.0;542.0
4.0;545.0
5.0;540.0
6.0;527.0
7.0;513.0
8.0;506.0
9.0;506.0
10.0;509.0
11.0;511.0
12.0;515.0
13.0;520.0
14.0;522.0
15.0;525.0
0.0;529.0
1.0;531.0
2.0;527.0
3.0;523.0
4.0;524.0
5.0;523.0
6.0;519.0
7.0;514.0
8.0;511.0
9.0;507.0
10.0;503.0
11.0;502.0
12.0;502.0
13.0;501.0
14.0;504.0
15.0;509.0
0.0;515.0
1.0;521.0
2.0;527.0
3.0;528.0
4.0;526.0
5.0;522.0
6.0;515.0
7.0;511.0
8.0;505.0
9.0;501.0
10.0;498.0
11.0;499.0
12.0;499.0
13.0;499.0
14.0;502.0
15.0;506.0
0.0;511.0
1.0;513.0
2.0;514.0
3.0;513.0
4.0;513.0
5.0;516.0
6.0;514.0
7.0;510.0
8.0;505.0
9.0;501.0
10.0;497.0
11.0;494.0
12.0;490.0
13.0;490.0
14.0;491.0
15.0;496.0
0.0;504.0
1.0;513.0
2.0;512.0
3.0;513.0
4.0;514.0
5.0;515.0
6.0;518.0
7.0;521.0
8.0;524.0
9.0;521.0
10.0;513.0
11.0;493.0
12.0;472.0
13.0;462.0
14.0;462.0
15.0;469.0
0.0;479.0
1.0;492.0
2.0;502.0
3.0;510.0
4.0;512.0
5.0;514.0
6.0;513.0
7.0;511.0
8.0;511.0
9.0;506.0
10.0;494.0
11.0;484.0
12.0;478.0
13.0;478.0
14.0;485.0
15.0;496.0
0.0;504.0
1.0;509.0
2.0;510.0
3.0;506.0
4.0;503.0
5.0;504.0
6.0;507.0
7.0;508.0
8.0;507.0
9.0;504.0
10.0;501.0
11.0;498.0
12.0;494.0
13.0;492.0
14.0;493.0
15.0;497.0
0.0;499.0
1.0;502.0
2.0;507.0
3.0;514.0
4.0;522.0
5.0;530.0
6.0;537.0
7.0;538.0
8.0;537.0
9.0;536.0
10.0;535.0
11.0;534.0
12.0;536.0
13.0;538.0
14.0;543.0
15.0;550.0
0.0;559.0
1.0;568.0
2.0;580.0
3.0;594.0
4.0;609.0
5.0;622.0
6.0;634.0
7.0;645.0
8.0;652.0
9.0;657.0
10.0;662.0
11.0;663.0
12.0;664.0
13.0;661.0
14.0;653.0
15.0;645.0
0.0;638.0
1.0;632.0
2.0;622.0
3.0;613.0
4.0;605.0
5.0;597.0
6.0;586.0
7.0;573.0
8.0;556.0
9.0;534.0
10.0;513.0
11.0;492.0
12.0;464.0
13.0;432.0
14.0;408.0
15.0;393.0
0.0;381.0
1.0;370.0
2.0;364.0
3.0;367.0
4.0;374.0
5.0;382.0
6.0;392.0
7.0;403.0
8.0;413.0
9.0;418.0
10.0;419.0
11.0;421.0
12.0;423.0
13.0;424.0
14.0;427.0
15.0;428.0
0.0;427.0
1.0;431.0
2.0;438.0
3.0;445.0
4.0;453.0
5.0;464.0
6.0;473.0
7.0;483.0
8.0;494.0
9.0;502.0
10.0;505.0
11.0;504.0
12.0;501.0
13.0;497.0
14.0;497.0
15.0;499.0
0.0;500.0
1.0;500.0
2.0;499.0
3.0;495.0
4.0;492.0
5.0;495.0
6.0;504.0
7.0;510.0
8.0;516.0
9.0;526.0
10.0;530.0
11.0;528.0
12.0;517.0
13.0;509.0
14.0;507.0
15.0;505.0
0.0;503.0
1.0;503.0
2.0;508.0
3.0;515.0
4.0;524.0
5.0;534.0
6.0;547.0
7.0;552.0
8.0;537.0
9.0;515.0
10.0;506.0
11.0;500.0
12.0;499.0
13.0;502.0
14.0;499.0
15.0;495.0
0.0;497.0
1.0;496.0
2.0;492.0
3.0;490.0
4.0;492.0
5.0;496.0
6.0;499.0
7.0;505.0
8.0;512.0
9.0;519.0
10.0;525.0
11.0;530.0
12.0;530.0
13.0;532.0
14.0;531.0
15.0;526.0
0.0;522.0
1.0;518.0
2.0;515.0
3.0;514.0
4.0;514.0
5.0;515.0
6.0;516.0
7.0;520.0
8.0;526.0
9.0;533.0
10.0;536.0
11.0;541.0
12.0;550.0
13.0;547.0
14.0;540.0
15.0;533.0
0.0;524.0
1.0;516.0
2.0;512.0
3.0;510.0
4.0;510.0
5.0;512.0
6.0;516.0
7.0;521.0
8.0;524.0
9.0;530.0
10.0;536.0
11.0;541.0
12.0;547.0
13.0;544.0
14.0;538.0
15.0;532.0
0.0;525.0
1.0;517.0
2.0;511.0
3.0;507.0
4.0;504.0
5.0;504.0
6.0;509.0
7.0;516.0
8.0;523.0
9.0;530.0
10.0;539.0
11.0;543.0
12.0;545.0
13.0;544.0
14.0;543.0
15.0;542.0
0.0;541.0
1.0;536.0
2.0;531.0
3.0;531.0
4.0;524.0
5.0;519.0
6.0;522.0
7.0;525.0
8.0;529.0
9.0;532.0
10.0;537.0
11.0;544.0
12.0;551.0
13.0;554.0
14.0;555.0
15.0;557.0
0.0;562.0
1.0;555.0
2.0;543.0
3.0;539.0
4.0;535.0
5.0;529.0
6.0;530.0
7.0;532.0
8.0;538.0
9.0;544.0
10.0;551.0
11.0;555.0
12.0;550.0
13.0;537.0
14.0;527.0
15.0;521.0
0.0;517.0
1.0;515.0
2.0;516.0
3.0;521.0
4.0;527.0
5.0;528.0
6.0;527.0
7.0;526.0
8.0;524.0
9.0;524.0
10.0;525.0
11.0;530.0
12.0;538.0
13.0;543.0
14.0;545.0
15.0;549.0
0.0;551.0
1.0;550.0
2.0;549.0
3.0;548.0
4.0;543.0
5.0;540.0
6.0;537.0
7.0;533.0
8.0;530.0
9.0;530.0
10.0;530.0
11.0;531.0
12.0;535.0
13.0;537.0
14.0;540.0
15.0;545.0
0.0;548.0
1.0;547.0
2.0;548.0
3.0;545.0
4.0;537.0
5.0;530.0
6.0;525.0
7.0;520.0
8.0;517.0
9.0;517.0
10.0;518.0
11.0;521.0
12.0;529.0
13.0;531.0
14.0;530.0
15.0;531.0
0.0;531.0
1.0;532.0
2.0;532.0
3.0;530.0
4.0;529.0
5.0;521.0
6.0;504.0
7.0;494.0
8.0;489.0
9.0;490.0
10.0;490.0
11.0;488.0
12.0;489.0
13.0;496.0
14.0;504.0
15.0;509.0
0.0;515.0
1.0;515.0
2.0;510.0
3.0;503.0
4.0;498.0
5.0;496.0
6.0;490.0
7.0;483.0
8.0;475.0
9.0;467.0
10.0;464.0
11.0;464.0
12.0;465.0
13.0;466.0
14.0;471.0
15.0;480.0
0.0;486.0
1.0;491.0
2.0;493.0
3.0;494.0
4.0;496.0
5.0;495.0
6.0;490.0
7.0;484.0
8.0;480.0
9.0;477.0
10.0;476.0
11.0;478.0
12.0;480.0
13.0;481.0
14.0;483.0
15.0;487.0
0.0;491.0
1.0;495.0
2.0;498.0
3.0;500.0
4.0;502.0
5.0;499.0
6.0;496.0
7.0;493.0
8.0;488.0
9.0;482.0
10.0;477.0
11.0;478.0
12.0;479.0
13.0;482.0
14.0;486.0
15.0;492.0
0.0;496.0
1.0;497.0
2.0;501.0
3.0;504.0
4.0;504.0
5.0;504.0
6.0;503.0
7.0;500.0
8.0;495.0
9.0;491.0
10.0;488.0
11.0;483.0
12.0;481.0
13.0;485.0
14.0;489.0
15.0;493.0
0.0;497.0
1.0;506.0
2.0;511.0
3.0;512.0
4.0;511.0
5.0;508.0
6.0;505.0
7.0;507.0
8.0;512.0
9.0;515.0
10.0;516.0
11.0;513.0
12.0;504.0
13.0;489.0
14.0;473.0
15.0;468.0
0.0;467.0
1.0;471.0
2.0;477.0
3.0;481.0
4.0;483.0
5.0;483.0
6.0;482.0
7.0;477.0
8.0;476.0
9.0;480.0
10.0;486.0
11.0;485.0
12.0;482.0
13.0;483.0
14.0;486.0
15.0;490.0
0.0;493.0
1.0;497.0
2.0;505.0
3.0;511.0
4.0;514.0
5.0;516.0
6.0;517.0
7.0;518.0
8.0;518.0
9.0;516.0
10.0;514.0
11.0;511.0
12.0;507.0
13.0;504.0
14.0;504.0
15.0;503.0
0.0;502.0
1.0;504.0
2.0;507.0
3.0;510.0
4.0;514.0
5.0;518.0
6.0;521.0
7.0;522.0
8.0;522.0
9.0;519.0
10.0;515.0
11.0;513.0
12.0;510.0
13.0;509.0
14.0;510.0
15.0;513.0
0.0;519.0
1.0;523.0
2.0;525.0
3.0;529.0
4.0;527.0
5.0;527.0
6.0;524.0
7.0;519.0
8.0;516.0
9.0;518.0
10.0;516.0
11.0;513.0
12.0;509.0
13.0;507.0
14.0;505.0
15.0;504.0
0.0;510.0
1.0;515.0
2.0;520.0
3.0;525.0
4.0;524.0
5.0;512.0
6.0;504.0
7.0;499.0
8.0;501.0
9.0;513.0
10.0;520.0
11.0;523.0
12.0;524.0
13.0;523.0
14.0;519.0
15.0;514.0
0.0;512.0
1.0;512.0
2.0;511.0
3.0;511.0
4.0;514.0
5.0;517.0
6.0;521.0
7.0;526.0
8.0;529.0
9.0;527.0
10.0;526.0
11.0;524.0
12.0;523.0
13.0;521.0
14.0;518.0
15.0;512.0
0.0;508.0
1.0;511.0
2.0;512.0
3.0;510.0
4.0;514.0
5.0;518.0
6.0;521.0
7.0;527.0
8.0;531.0
9.0;532.0
10.0;532.0
11.0;530.0
12.0;526.0
13.0;517.0
14.0;511.0
15.0;509.0
0.0;511.0
1.0;515.0
2.0;523.0
3.0;530.0
4.0;534.0
5.0;533.0
6.0;522.0
7.0;502.0
8.0;488.0
9.0;485.0
10.0;487.0
11.0;489.0
12.0;492.0
13.0;494.0
14.0;496.0
15.0;498.0
0.0;499.0
1.0;500.0
2.0;502.0
3.0;507.0
4.0;510.0
5.0;512.0
6.0;520.0
7.0;531.0
8.0;542.0
9.0;547.0
10.0;550.0
11.0;536.0
12.0;519.0
13.0;507.0
14.0;496.0
15.0;489.0
0.0;492.0
1.0;497.0
2.0;502.0
3.0;507.0
4.0;513.0
5.0;518.0
6.0;523.0
7.0;528.0
8.0;532.0
9.0;535.0
10.0;540.0
11.0;542.0
12.0;542.0
13.0;541.0
14.0;539.0
15.0;534.0
0.0;530.0
1.0;529.0
2.0;527.0
3.0;525.0
4.0;526.0
5.0;527.0
6.0;529.0
7.0;534.0
8.0;539.0
9.0;539.0
10.0;540.0
11.0;541.0
12.0;539.0
13.0;535.0
14.0;531.0
15.0;529.0
0.0;525.0
1.0;519.0
2.0;513.0
3.0;511.0
4.0;508.0
5.0;509.0
6.0;512.0
7.0;513.0
8.0;511.0
9.0;508.0
10.0;508.0
11.0;509.0
12.0;519.0
13.0;524.0
14.0;524.0
15.0;524.0
0.0;518.0
1.0;510.0
2.0;499.0
3.0;492.0
4.0;489.0
5.0;490.0
6.0;493.0
7.0;496.0
8.0;498.0
9.0;502.0
10.0;510.0
11.0;518.0
12.0;526.0
13.0;535.0
14.0;542.0
15.0;541.0
0.0;525.0
1.0;504.0
2.0;487.0
3.0;474.0
4.0;466.0
5.0;465.0
6.0;469.0
7.0;473.0
8.0;477.0
9.0;485.0
10.0;496.0
11.0;502.0
12.0;507.0
13.0;511.0
14.0;513.0
15.0;512.0
0.0;510.0
1.0;505.0
2.0;502.0
3.0;502.0
4.0;503.0
5.0;502.0
6.0;501.0
7.0;501.0
8.0;502.0
9.0;504.0
10.0;510.0
11.0;515.0
12.0;518.0
13.0;524.0
14.0;526.0
15.0;526.0
0.0;524.0
1.0;519.0
2.0;512.0
3.0;504.0
4.0;501.0
5.0;500.0
6.0;499.0
7.0;498.0
8.0;496.0
9.0;494.0
10.0;501.0
11.0;510.0
12.0;514.0
13.0;519.0
14.0;522.0
15.0;528.0
0.0;527.0
1.0;524.0
2.0;519.0
3.0;514.0
4.0;511.0
5.0;505.0
6.0;502.0
7.0;500.0
8.0;499.0
9.0;500.0
10.0;503.0
11.0;511.0
12.0;522.0
13.0;532.0
14.0;541.0
15.0;550.0
0.0;557.0
1.0;563.0
2.0;568.0
3.0;571.0
4.0;572.0
5.0;575.0
6.0;581.0
7.0;591.0
8.0;601.0
9.0;613.0
10.0;627.0
11.0;639.0
12.0;648.0
13.0;657.0
14.0;664.0
15.0;672.0
0.0;674.0
1.0;674.0
2.0;670.0
3.0;663.0
4.0;650.0
5.0;634.0
6.0;618.0
7.0;602.0
8.0;587.0
9.0;570.0
10.0;553.0
11.0;536.0
12.0;518.0
13.0;501.0
14.0;481.0
15.0;459.0
0.0;441.0
1.0;423.0
2.0;407.0
3.0;395.0
4.0;379.0
5.0;370.0
6.0;367.0
7.0;374.0
8.0;388.0
9.0;403.0
10.0;417.0
11.0;428.0
12.0;416.0
13.0;385.0
14.0;368.0
15.0;374.0
0.0;389.0
1.0;405.0
2.0;422.0
3.0;432.0
4.0;442.0
5.0;449.0
6.0;451.0
7.0;449.0
8.0;447.0
9.0;448.0
10.0;450.0
11.0;455.0
12.0;463.0
13.0;470.0
14.0;478.0
15.0;484.0
0.0;491.0
1.0;496.0
2.0;502.0
3.0;507.0
4.0;510.0
5.0;513.0
6.0;513.0
7.0;511.0
8.0;509.0
9.0;506.0
10.0;503.0
11.0;499.0
12.0;502.0
13.0;504.0
14.0;508.0
15.0;511.0
0.0;514.0
1.0;517.0
2.0;521.0
3.0;522.0
4.0;523.0
5.0;522.0
6.0;519.0
7.0;515.0
8.0;512.0
9.0;510.0
10.0;506.0
11.0;506.0
12.0;508.0
13.0;511.0
14.0;514.0
15.0;521.0
0.0;529.0
1.0;535.0
2.0;541.0
3.0;545.0
4.0;544.0
5.0;543.0
6.0;539.0
7.0;536.0
8.0;532.0
9.0;528.0
10.0;525.0
11.0;521.0
12.0;519.0
13.0;520.0
14.0;521.0
15.0;525.0
0.0;523.0
1.0;528.0
2.0;529.0
3.0;533.0
4.0;537.0
5.0;540.0
6.0;542.0
7.0;542.0
8.0;537.0
9.0;527.0
10.0;521.0
11.0;518.0
12.0;514.0
13.0;512.0
14.0;513.0
15.0;514.0
0.0;518.0
1.0;524.0
2.0;527.0
3.0;529.0
4.0;534.0
5.0;536.0
6.0;537.0
7.0;540.0
8.0;536.0
9.0;532.0
10.0;528.0
11.0;525.0
12.0;523.0
13.0;518.0
14.0;517.0
15.0;524.0
0.0;521.0
1.0;523.0
2.0;528.0
3.0;532.0
4.0;531.0
5.0;531.0
6.0;532.0
7.0;536.0
8.0;544.0
9.0;552.0
10.0;556.0
11.0;558.0
12.0;555.0
13.0;533.0
14.0;508.0
15.0;488.0
0.0;480.0
1.0;482.0
2.0;492.0
3.0;501.0
4.0;511.0
5.0;516.0
6.0;520.0
7.0;526.0
8.0;529.0
9.0;530.0
10.0;527.0
11.0;523.0
12.0;522.0
13.0;521.0
14.0;522.0
15.0;524.0
0.0;526.0
1.0;528.0
2.0;533.0
3.0;539.0
4.0;546.0
5.0;552.0
6.0;557.0
7.0;557.0
8.0;557.0
9.0;558.0
10.0;558.0
11.0;555.0
12.0;553.0
13.0;553.0
14.0;550.0
15.0;547.0
0.0;544.0
1.0;542.0
2.0;537.0
3.0;535.0
4.0;537.0
5.0;540.0
6.0;543.0
7.0;549.0
8.0;552.0
9.0;553.0
10.0;551.0
11.0;549.0
12.0;545.0
13.0;544.0
14.0;543.0
15.0;542.0
0.0;541.0
1.0;544.0
2.0;546.0
3.0;548.0
4.0;551.0
5.0;554.0
6.0;558.0
7.0;561.0
8.0;565.0
9.0;569.0
10.0;563.0
11.0;562.0
12.0;559.0
13.0;557.0
14.0;547.0
15.0;538.0
0.0;538.0
1.0;534.0
2.0;532.0
3.0;533.0
4.0;533.0
5.0;535.0
6.0;536.0
7.0;535.0
8.0;531.0
9.0;529.0
10.0;527.0
11.0;528.0
12.0;528.0
13.0;524.0
14.0;518.0
15.0;512.0
0.0;503.0
1.0;497.0
2.0;497.0
3.0;505.0
4.0;516.0
5.0;526.0
6.0;535.0
7.0;538.0
8.0;530.0
9.0;518.0
10.0;506.0
11.0;496.0
12.0;493.0
13.0;492.0
14.0;487.0
15.0;478.0
0.0;470.0
1.0;465.0
2.0;465.0
3.0;469.0
4.0;474.0
5.0;479.0
6.0;486.0
7.0;490.0
8.0;493.0
9.0;498.0
10.0;501.0
11.0;499.0
12.0;496.0
13.0;495.0
14.0;492.0
15.0;488.0
0.0;484.0
1.0;481.0
2.0;479.0
3.0;478.0
4.0;479.0
5.0;480.0
6.0;484.0
7.0;489.0
8.0;491.0
9.0;496.0
10.0;500.0
11.0;502.0
12.0;502.0
13.0;500.0
14.0;497.0
15.0;491.0
0.0;483.0
1.0;479.0
2.0;477.0
3.0;475.0
4.0;477.0
5.0;480.0
6.0;486.0
7.0;493.0
8.0;497.0
9.0;500.0
10.0;498.0
11.0;496.0
12.0;492.0
13.0;491.0
14.0;489.0
15.0;489.0
0.0;487.0
1.0;484.0
2.0;481.0
3.0;479.0
4.0;477.0
5.0;475.0
6.0;475.0
7.0;478.0
8.0;486.0
9.0;497.0
10.0;507.0
11.0;505.0
12.0;499.0
13.0;496.0
14.0;491.0
15.0;481.0
0.0;473.0
1.0;471.0
2.0;470.0
3.0;468.0
4.0;466.0
5.0;468.0
6.0;471.0
7.0;470.0
8.0;472.0
9.0;479.0
10.0;486.0
11.0;489.0
12.0;493.0
13.0;498.0
14.0;502.0
15.0;502.0
0.0;498.0
1.0;491.0
2.0;484.0
3.0;482.0
4.0;485.0
5.0;485.0
6.0;486.0
7.0;490.0
8.0;494.0
9.0;489.0
10.0;484.0
11.0;483.0
12.0;485.0
13.0;492.0
14.0;502.0
15.0;508.0
0.0;508.0
1.0;504.0
2.0;498.0
3.0;493.0
4.0;488.0
5.0;480.0
6.0;477.0
7.0;478.0
8.0;480.0
9.0;482.0
10.0;494.0
11.0;500.0
12.0;506.0
13.0;514.0
14.0;518.0
15.0;514.0
0.0;504.0
1.0;495.0
2.0;491.0
3.0;485.0
4.0;482.0
5.0;479.0
6.0;477.0
7.0;476.0
8.0;478.0
9.0;481.0
10.0;486.0
11.0;492.0
12.0;498.0
13.0;502.0
14.0;505.0
15.0;508.0
0.0;510.0
1.0;512.0
2.0;509.0
3.0;506.0
4.0;503.0
5.0;501.0
6.0;497.0
7.0;493.0
8.0;491.0
9.0;492.0
10.0;496.0
11.0;499.0
12.0;504.0
13.0;508.0
14.0;513.0
15.0;514.0
0.0;513.0
1.0;513.0
2.0;517.0
3.0;519.0
4.0;519.0
5.0;512.0
6.0;507.0
7.0;496.0
8.0;485.0
9.0;483.0
10.0;480.0
11.0;476.0
12.0;480.0
13.0;486.0
14.0;492.0
15.0;500.0
0.0;507.0
1.0;509.0
2.0;504.0
3.0;497.0
4.0;490.0
5.0;483.0
6.0;483.0
7.0;487.0
8.0;491.0
9.0;493.0
10.0;496.0
11.0;496.0
12.0;491.0
13.0;490.0
14.0;496.0
15.0;502.0
0.0;505.0
1.0;509.0
2.0;508.0
3.0;508.0
4.0;508.0
5.0;505.0
6.0;500.0
7.0;496.0
8.0;494.0
9.0;493.0
10.0;494.0
11.0;496.0
12.0;498.0
13.0;502.0
14.0;508.0
15.0;512.0
0.0;517.0
1.0;520.0
2.0;523.0
3.0;522.0
4.0;516.0
5.0;512.0
6.0;507.0
7.0;504.0
8.0;503.0
9.0;502.0
10.0;500.0
11.0;502.0
12.0;504.0
13.0;505.0
14.0;508.0
15.0;514.0
0.0;518.0
1.0;519.0
2.0;518.0
3.0;518.0
4.0;520.0
5.0;517.0
6.0;514.0
7.0;511.0
8.0;507.0
9.0;504.0
10.0;500.0
11.0;499.0
12.0;503.0
13.0;508.0
14.0;517.0
15.0;527.0
0.0;540.0
1.0;543.0
2.0;543.0
3.0;539.0
4.0;529.0
5.0;519.0
6.0;509.0
7.0;497.0
8.0;491.0
9.0;494.0
10.0;491.0
11.0;485.0
12.0;485.0
13.0;490.0
14.0;492.0
15.0;495.0
0.0;500.0
1.0;498.0
2.0;494.0
3.0;496.0
4.0;499.0
5.0;508.0
6.0;515.0
7.0;519.0
8.0;519.0
9.0;519.0
10.0;518.0
11.0;512.0
12.0;508.0
13.0;503.0
14.0;499.0
15.0;500.0
0.0;506.0
1.0;512.0
2.0;516.0
3.0;523.0
4.0;530.0
5.0;534.0
6.0;534.0
7.0;531.0
8.0;525.0
9.0;518.0
10.0;510.0
11.0;505.0
12.0;504.0
13.0;502.0
14.0;504.0
15.0;505.0
0.0;508.0
1.0;510.0
2.0;514.0
3.0;516.0
4.0;518.0
5.0;521.0
6.0;519.0
7.0;516.0
8.0;512.0
9.0;506.0
10.0;501.0
11.0;500.0
12.0;501.0
13.0;497.0
14.0;494.0
15.0;493.0
0.0;495.0
1.0;501.0
2.0;508.0
3.0;513.0
4.0;518.0
5.0;522.0
6.0;526.0
7.0;524.0
8.0;520.0
9.0;515.0
10.0;509.0
11.0;499.0
12.0;493.0
13.0;491.0
14.0;491.0
15.0;489.0
0.0;495.0
1.0;495.0
2.0;502.0
3.0;508.0
4.0;514.0
5.0;515.0
6.0;521.0
7.0;521.0
8.0;520.0
9.0;519.0
10.0;518.0
11.0;514.0
12.0;512.0
13.0;506.0
14.0;496.0
15.0;485.0
0.0;480.0
1.0;480.0
2.0;480.0
3.0;489.0
4.0;499.0
5.0;504.0
6.0;510.0
7.0;515.0
8.0;517.0
9.0;515.0
10.0;515.0
11.0;512.0
12.0;509.0
13.0;508.0
14.0;506.0
15.0;502.0
0.0;501.0
1.0;502.0
2.0;503.0
3.0;505.0
4.0;511.0
5.0;515.0
6.0;520.0
7.0;522.0
8.0;520.0
9.0;519.0
10.0;519.0
11.0;517.0
12.0;514.0
13.0;512.0
14.0;508.0
15.0;507.0
0.0;510.0
1.0;519.0
2.0;527.0
3.0;531.0
4.0;531.0
5.0;531.0
6.0;524.0
7.0;517.0
8.0;517.0
9.0;518.0
10.0;521.0
11.0;524.0
12.0;526.0
13.0;524.0
14.0;527.0
15.0;536.0
0.0;545.0
1.0;554.0
2.0;565.0
3.0;579.0
4.0;596.0
5.0;613.0
6.0;630.0
7.0;647.0
8.0;656.0
9.0;662.0
10.0;668.0
11.0;674.0
12.0;673.0
13.0;668.0
14.0;662.0
15.0;654.0
0.0;643.0
1.0;632.0
2.0;620.0
3.0;609.0
4.0;595.0
5.0;580.0
6.0;567.0
7.0;552.0
8.0;536.0
9.0;518.0
10.0;494.0
11.0;467.0
12.0;441.0
13.0;418.0
14.0;400.0
15.0;384.0
0.0;371.0
1.0;364.0
2.0;361.0
3.0;367.0
4.0;374.0
5.0;379.0
6.0;387.0
7.0;397.0
8.0;407.0
9.0;423.0
10.0;433.0
11.0;443.0
12.0;448.0
13.0;448.0
14.0;443.0
15.0;428.0
0.0;414.0
1.0;412.0
2.0;417.0
3.0;423.0
4.0;433.0
5.0;444.0
6.0;455.0
7.0;468.0
8.0;478.0
9.0;487.0
10.0;501.0
11.0;508.0
12.0;506.0
13.0;503.0
14.0;505.0
15.0;503.0
0.0;491.0
1.0;476.0
2.0;466.0
3.0;462.0
4.0;464.0
5.0;472.0
6.0;479.0
7.0;486.0
8.0;494.0
9.0;501.0
10.0;508.0
11.0;515.0
12.0;519.0
13.0;522.0
14.0;522.0
15.0;521.0
0.0;515.0
1.0;508.0
2.0;504.0
3.0;501.0
4.0;499.0
5.0;500.0
6.0;504.0
7.0;508.0
8.0;512.0
9.0;517.0
10.0;523.0
11.0;525.0
12.0;528.0
13.0;530.0
14.0;531.0
15.0;529.0
0.0;525.0
1.0;520.0
2.0;516.0
3.0;514.0
4.0;511.0
5.0;511.0
6.0;513.0
7.0;514.0
8.0;514.0
9.0;518.0
10.0;524.0
11.0;530.0
12.0;532.0
13.0;535.0
14.0;539.0
15.0;538.0
0.0;538.0
1.0;534.0
2.0;531.0
3.0;526.0
4.0;516.0
5.0;511.0
6.0;511.0
7.0;513.0
8.0;512.0
9.0;513.0
10.0;519.0
11.0;526.0
12.0;531.0
13.0;535.0
14.0;541.0
15.0;543.0
0.0;541.0
1.0;535.0
2.0;532.0
3.0;529.0
4.0;524.0
5.0;517.0
6.0;507.0
7.0;499.0
8.0;499.0
9.0;504.0
10.0;509.0
11.0;517.0
12.0;524.0
13.0;527.0
14.0;529.0
15.0;531.0
0.0;531.0
1.0;525.0
2.0;521.0
3.0;514.0
4.0;508.0
5.0;506.0
6.0;505.0
7.0;506.0
8.0;508.0
9.0;510.0
10.0;514.0
11.0;523.0
12.0;530.0
13.0;536.0
14.0;542.0
15.0;548.0
0.0;556.0
1.0;561.0
2.0;561.0
3.0;555.0
4.0;542.0
5.0;530.0
6.0;520.0
7.0;514.0
8.0;514.0
9.0;517.0
10.0;519.0
11.0;524.0
12.0;531.0
13.0;537.0
14.0;542.0
15.0;547.0
0.0;550.0
1.0;552.0
2.0;551.0
3.0;551.0
4.0;548.0
5.0;543.0
6.0;539.0
7.0;534.0
8.0;534.0
9.0;533.0
10.0;535.0
11.0;537.0
12.0;543.0
13.0;550.0
14.0;553.0
15.0;558.0
0.0;563.0
1.0;565.0
2.0;564.0
3.0;561.0
4.0;559.0
5.0;556.0
6.0;553.0
7.0;549.0
8.0;545.0
9.0;542.0
10.0;541.0
11.0;541.0
12.0;542.0
13.0;548.0
14.0;561.0
15.0;570.0
0.0;574.0
1.0;576.0
2.0;578.0
3.0;576.0
4.0;574.0
5.0;572.0
6.0;565.0
7.0;555.0
8.0;541.0
9.0;525.0
10.0;512.0
11.0;502.0
12.0;496.0
13.0;499.0
14.0;509.0
15.0;515.0
0.0;520.0
1.0;526.0
2.0;534.0
3.0;540.0
4.0;542.0
5.0;538.0
6.0;529.0
7.0;522.0
8.0;515.0
9.0;513.0
10.0;515.0
11.0;513.0
12.0;513.0
13.0;512.0
14.0;512.0
15.0;514.0
0.0;515.0
1.0;520.0
2.0;527.0
3.0;527.0
4.0;525.0
5.0;522.0
6.0;518.0
7.0;512.0
8.0;507.0
9.0;502.0
10.0;499.0
11.0;495.0
12.0;495.0
13.0;498.0
14.0;499.0
15.0;502.0
0.0;502.0
1.0;502.0
2.0;509.0
3.0;511.0
4.0;510.0
5.0;508.0
6.0;506.0
7.0;503.0
8.0;501.0
9.0;494.0
10.0;489.0
11.0;484.0
12.0;481.0
13.0;480.0
14.0;482.0
15.0;484.0
0.0;489.0
1.0;495.0
2.0;499.0
3.0;507.0
4.0;514.0
5.0;519.0
6.0;520.0
7.0;511.0
8.0;483.0
9.0;449.0
10.0;432.0
11.0;430.0
12.0;433.0
13.0;440.0
14.0;449.0
15.0;456.0
0.0;462.0
1.0;470.0
2.0;477.0
3.0;481.0
4.0;487.0
5.0;489.0
6.0;490.0
7.0;490.0
8.0;488.0
9.0;485.0
10.0;482.0
11.0;477.0
12.0;472.0
13.0;472.0
14.0;476.0
15.0;480.0
0.0;482.0
1.0;486.0
2.0;491.0
3.0;495.0
4.0;501.0
5.0;502.0
6.0;496.0
7.0;493.0
8.0;494.0
9.0;491.0
10.0;488.0
11.0;488.0
12.0;485.0
13.0;479.0
14.0;477.0
15.0;479.0
0.0;479.0
1.0;481.0
2.0;487.0
3.0;490.0
4.0;491.0
5.0;498.0
6.0;500.0
7.0;502.0
8.0;505.0
9.0;504.0
10.0;497.0
11.0;490.0
12.0;481.0
13.0;477.0
14.0;478.0
15.0;478.0
0.0;480.0
1.0;482.0
2.0;483.0
3.0;486.0
4.0;491.0
5.0;496.0
6.0;502.0
7.0;508.0
8.0;511.0
9.0;505.0
10.0;499.0
11.0;491.0
12.0;481.0
13.0;475.0
14.0;473.0
15.0;475.0
0.0;480.0
1.0;484.0
2.0;489.0
3.0;495.0
4.0;501.0
5.0;504.0
6.0;507.0
7.0;512.0
8.0;515.0
9.0;515.0
10.0;515.0
11.0;512.0
12.0;507.0
13.0;499.0
14.0;497.0
15.0;497.0
0.0;498.0
1.0;496.0
2.0;496.0
3.0;495.0
4.0;496.0
5.0;504.0
6.0;513.0
7.0;521.0
8.0;530.0
9.0;535.0
10.0;542.0
11.0;543.0
12.0;538.0
13.0;528.0
14.0;507.0
15.0;479.0
0.0;454.0
1.0;440.0
2.0;440.0
3.0;441.0
4.0;449.0
5.0;457.0
6.0;471.0
7.0;485.0
8.0;499.0
9.0;508.0
10.0;512.0
11.0;513.0
12.0;513.0
13.0;508.0
14.0;504.0
15.0;501.0
0.0;497.0
1.0;495.0
2.0;497.0
3.0;500.0
4.0;504.0
5.0;507.0
6.0;512.0
7.0;516.0
8.0;519.0
9.0;526.0
10.0;530.0
11.0;531.0
12.0;530.0
13.0;527.0
14.0;523.0
15.0;517.0
0.0;512.0
1.0;508.0
2.0;504.0
3.0;505.0
4.0;506.0
5.0;509.0
6.0;512.0
7.0;515.0
8.0;520.0
9.0;526.0
10.0;529.0
11.0;526.0
12.0;523.0
13.0;519.0
14.0;514.0
15.0;509.0
0.0;507.0
1.0;505.0
2.0;504.0
3.0;505.0
4.0;509.0
5.0;510.0
6.0;512.0
7.0;516.0
8.0;517.0
9.0;519.0
10.0;520.0
11.0;521.0
12.0;520.0
13.0;517.0
14.0;513.0
15.0;508.0
0.0;503.0
1.0;500.0
2.0;497.0
3.0;497.0
4.0;500.0
5.0;506.0
6.0;511.0
7.0;518.0
8.0;526.0
9.0;531.0
10.0;534.0
11.0;535.0
12.0;529.0
13.0;520.0
14.0;520.0
15.0;529.0
0.0;532.0
1.0;526.0
2.0;501.0
3.0;483.0
4.0;486.0
5.0;497.0
6.0;506.0
7.0;505.0
8.0;498.0
9.0;495.0
10.0;491.0
11.0;490.0
12.0;495.0
13.0;499.0
14.0;503.0
15.0;502.0
0.0;493.0
1.0;486.0
2.0;486.0
3.0;487.0
4.0;489.0
5.0;493.0
6.0;496.0
7.0;499.0
8.0;504.0
9.0;512.0
10.0;519.0
11.0;520.0
12.0;520.0
13.0;520.0
14.0;520.0
15.0;519.0
0.0;519.0
1.0;518.0
2.0;515.0
3.0;514.0
4.0;510.0
5.0;508.0
6.0;508.0
7.0;512.0
8.0;513.0
9.0;516.0
10.0;522.0
11.0;524.0
12.0;527.0
13.0;532.0
14.0;535.0
15.0;537.0
0.0;539.0
1.0;536.0
2.0;529.0
3.0;523.0
4.0;521.0
5.0;519.0
6.0;517.0
7.0;519.0
8.0;519.0
9.0;518.0
10.0;520.0
11.0;525.0
12.0;529.0
13.0;531.0
14.0;533.0
15.0;531.0
0.0;530.0
1.0;529.0
2.0;525.0
3.0;518.0
4.0;511.0
5.0;503.0
6.0;498.0
7.0;496.0
8.0;501.0
9.0;499.0
10.0;499.0
11.0;503.0
12.0;507.0
13.0;508.0
14.0;512.0
15.0;518.0
0.0;515.0
1.0;515.0
2.0;513.0
3.0;510.0
4.0;506.0
5.0;504.0
6.0;503.0
7.0;503.0
8.0;500.0
9.0;496.0
10.0;492.0
11.0;495.0
12.0;499.0
13.0;504.0
14.0;508.0
15.0;513.0
0.0;517.0
1.0;519.0
2.0;519.0
3.0;519.0
4.0;512.0
5.0;507.0
6.0;503.0
7.0;498.0
8.0;495.0
9.0;494.0
10.0;496.0
11.0;505.0
12.0;523.0
13.0;543.0
14.0;549.0
15.0;547.0
0.0;527.0
1.0;498.0
2.0;480.0
3.0;478.0
4.0;479.0
5.0;479.0
6.0;479.0
7.0;475.0
8.0;473.0
9.0;476.0
10.0;481.0
11.0;481.0
12.0;482.0
13.0;487.0
14.0;493.0
15.0;498.0
0.0;504.0
1.0;508.0
2.0;506.0
3.0;509.0
4.0;507.0
5.0;501.0
6.0;495.0
7.0;493.0
8.0;493.0
9.0;493.0
10.0;494.0
11.0;496.0
12.0;499.0
13.0;504.0
14.0;511.0
15.0;514.0
0.0;516.0
1.0;519.0
2.0;523.0
3.0;522.0
4.0;516.0
5.0;508.0
6.0;502.0
7.0;498.0
8.0;495.0
9.0;494.0
10.0;497.0
11.0;499.0
12.0;501.0
13.0;504.0
14.0;511.0
15.0;518.0
0.0;524.0
1.0;530.0
2.0;536.0
3.0;543.0
4.0;547.0
5.0;553.0
6.0;557.0
7.0;558.0
8.0;563.0
9.0;569.0
10.0;576.0
11.0;587.0
12.0;600.0
13.0;617.0
14.0;634.0
15.0;649.0
0.0;662.0
1.0;668.0
2.0;676.0
3.0;682.0
4.0;682.0
5.0;682.0
6.0;675.0
7.0;665.0
8.0;647.0
9.0;631.0
10.0;615.0
11.0;598.0
12.0;586.0
13.0;573.0
14.0;559.0
15.0;541.0
0.0;524.0
1.0;508.0
2.0;488.0
3.0;467.0
4.0;446.0
5.0;423.0
6.0;405.0
7.0;390.0
8.0;375.0
9.0;369.0
10.0;371.0
11.0;376.0
12.0;386.0
13.0;393.0
14.0;397.0
15.0;402.0
0.0;401.0
1.0;395.0
2.0;391.0
3.0;392.0
4.0;400.0
5.0;403.0
6.0;409.0
7.0;418.0
8.0;423.0
9.0;426.0
10.0;431.0
11.0;433.0
12.0;434.0
13.0;438.0
14.0;446.0
15.0;451.0
0.0;456.0
1.0;464.0
2.0;468.0
3.0;473.0
4.0;482.0
5.0;489.0
6.0;493.0
7.0;497.0
8.0;499.0
9.0;495.0
10.0;488.0
11.0;486.0
12.0;483.0
13.0;482.0
14.0;484.0
15.0;486.0
0.0;489.0
1.0;496.0
2.0;504.0
3.0;509.0
4.0;511.0
5.0;513.0
6.0;514.0
7.0;513.0
8.0;515.0
9.0;515.0
10.0;512.0
11.0;507.0
12.0;502.0
13.0;497.0
14.0;495.0
15.0;494.0
0.0;498.0
1.0;506.0
2.0;516.0
3.0;524.0
4.0;528.0
5.0;532.0
6.0;536.0
7.0;535.0
8.0;528.0
9.0;524.0
10.0;519.0
11.0;511.0
12.0;505.0
13.0;499.0
14.0;496.0
15.0;496.0
0.0;495.0
1.0;494.0
2.0;497.0
3.0;506.0
4.0;513.0
5.0;520.0
6.0;527.0
7.0;529.0
8.0;530.0
9.0;531.0
10.0;526.0
11.0;522.0
12.0;523.0
13.0;521.0
14.0;507.0
15.0;496.0
0.0;491.0
1.0;483.0
2.0;481.0
3.0;486.0
4.0;494.0
5.0;504.0
6.0;512.0
7.0;521.0
8.0;526.0
9.0;529.0
10.0;530.0
11.0;530.0
12.0;523.0
13.0;513.0
14.0;503.0
15.0;496.0
0.0;500.0
1.0;506.0
2.0;510.0
3.0;513.0
4.0;518.0
5.0;522.0
6.0;521.0
7.0;525.0
8.0;524.0
9.0;520.0
10.0;518.0
11.0;524.0
12.0;526.0
13.0;520.0
14.0;518.0
15.0;514.0
0.0;511.0
1.0;507.0
2.0;507.0
3.0;502.0
4.0;496.0
5.0;501.0
6.0;507.0
7.0;513.0
8.0;521.0
9.0;527.0
10.0;530.0
11.0;532.0
12.0;534.0
13.0;536.0
14.0;538.0
15.0;540.0
0.0;541.0
1.0;539.0
2.0;540.0
3.0;541.0
4.0;536.0
5.0;528.0
6.0;526.0
7.0;527.0
8.0;529.0
9.0;533.0
10.0;535.0
11.0;532.0
12.0;532.0
13.0;533.0
14.0;536.0
15.0;535.0
0.0;531.0
1.0;528.0
2.0;526.0
3.0;527.0
4.0;527.0
5.0;525.0
6.0;526.0
7.0;530.0
8.0;535.0
9.0;540.0
10.0;542.0
11.0;540.0
12.0;535.0
13.0;532.0
14.0;528.0
15.0;527.0
0.0;528.0
1.0;533.0
2.0;531.0
3.0;529.0
4.0;529.0
5.0;526.0
6.0;519.0
7.0;515.0
8.0;518.0
9.0;521.0
10.0;528.0
11.0;528.0
12.0;527.0
13.0;525.0
14.0;521.0
15.0;522.0
0.0;519.0
1.0;516.0
2.0;513.0
3.0;510.0
4.0;510.0
5.0;512.0
6.0;513.0
7.0;515.0
8.0;523.0
9.0;529.0
10.0;531.0
11.0;534.0
12.0;535.0
13.0;533.0
14.0;532.0
15.0;531.0
0.0;527.0
1.0;519.0
2.0;512.0
3.0;505.0
4.0;498.0
5.0;497.0
6.0;497.0
7.0;497.0
8.0;499.0
9.0;502.0
10.0;504.0
11.0;509.0
12.0;514.0
13.0;517.0
14.0;516.0
15.0;512.0
0.0;505.0
1.0;498.0
2.0;494.0
3.0;490.0
4.0;485.0
5.0;480.0
6.0;477.0
7.0;479.0
8.0;482.0
9.0;494.0
10.0;501.0
11.0;501.0
12.0;506.0
13.0;507.0
14.0;503.0
15.0;497.0
0.0;489.0
1.0;485.0
2.0;481.0
3.0;480.0
4.0;474.0
5.0;464.0
6.0;460.0
7.0;459.0
8.0;457.0
9.0;462.0
10.0;472.0
11.0;481.0
12.0;488.0
13.0;495.0
14.0;497.0
15.0;492.0
0.0;487.0
1.0;477.0
2.0;463.0
3.0;459.0
4.0;465.0
5.0;470.0
6.0;469.0
7.0;467.0
8.0;465.0
9.0;463.0
10.0;467.0
11.0;474.0
12.0;481.0
13.0;489.0
14.0;502.0
15.0;507.0
0.0;504.0
1.0;498.0
2.0;487.0
3.0;476.0
4.0;467.0
5.0;462.0
6.0;458.0
7.0;459.0
8.0;465.0
9.0;468.0
10.0;470.0
11.0;474.0
12.0;478.0
13.0;482.0
14.0;488.0
15.0;493.0
0.0;494.0
1.0;494.0
2.0;496.0
3.0;491.0
4.0;481.0
5.0;474.0
6.0;470.0
7.0;467.0
8.0;468.0
9.0;470.0
10.0;472.0
11.0;476.0
12.0;483.0
13.0;489.0
14.0;496.0
15.0;502.0
0.0;507.0
1.0;505.0
2.0;501.0
3.0;495.0
4.0;487.0
5.0;481.0
6.0;479.0
7.0;483.0
8.0;488.0
9.0;497.0
10.0;496.0
11.0;489.0
12.0;487.0
13.0;487.0
14.0;480.0
15.0;478.0
0.0;484.0
1.0;490.0
2.0;491.0
3.0;490.0
4.0;487.0
5.0;477.0
6.0;471.0
7.0;468.0
8.0;469.0
9.0;469.0
10.0;468.0
11.0;468.0
12.0;469.0
13.0;475.0
14.0;481.0
15.0;486.0
0.0;493.0
1.0;499.0
2.0;502.0
3.0;502.0
4.0;504.0
5.0;507.0
6.0;505.0
7.0;503.0
8.0;497.0
9.0;483.0
10.0;473.0
11.0;463.0
12.0;456.0
13.0;463.0
14.0;472.0
15.0;481.0
0.0;490.0
1.0;498.0
2.0;504.0
3.0;507.0
4.0;507.0
5.0;508.0
6.0;505.0
7.0;502.0
8.0;500.0
9.0;500.0
10.0;498.0
11.0;499.0
12.0;504.0
13.0;502.0
14.0;502.0
15.0;506.0
0.0;508.0
1.0;513.0
2.0;513.0
3.0;513.0
4.0;515.0
5.0;518.0
6.0;515.0
7.0;507.0
8.0;503.0
9.0;501.0
10.0;493.0
11.0;488.0
12.0;489.0
13.0;489.0
14.0;492.0
15.0;498.0
0.0;502.0
1.0;506.0
2.0;510.0
3.0;513.0
4.0;514.0
5.0;515.0
6.0;513.0
7.0;510.0
8.0;507.0
9.0;505.0
10.0;501.0
11.0;498.0
12.0;500.0
13.0;504.0
14.0;505.0
15.0;507.0
0.0;512.0
1.0;513.0
2.0;519.0
3.0;520.0
4.0;524.0
5.0;524.0
6.0;526.0
7.0;522.0
8.0;509.0
9.0;497.0
10.0;494.0
11.0;496.0
12.0;496.0
13.0;496.0
14.0;496.0
15.0;495.0
0.0;499.0
1.0;504.0
2.0;501.0
3.0;502.0
4.0;508.0
5.0;509.0
6.0;504.0
7.0;495.0
8.0;488.0
9.0;485.0
10.0;486.0
11.0;485.0
12.0;484.0
13.0;487.0
14.0;491.0
15.0;494.0
0.0;496.0
1.0;503.0
2.0;508.0
3.0;508.0
4.0;511.0
5.0;516.0
6.0;518.0
7.0;519.0
8.0;519.0
9.0;516.0
10.0;515.0
11.0;511.0
12.0;506.0
13.0;503.0
14.0;505.0
15.0;511.0
0.0;513.0
1.0;513.0
2.0;514.0
3.0;517.0
4.0;518.0
5.0;521.0
6.0;524.0
7.0;526.0
8.0;528.0
9.0;528.0
10.0;524.0
11.0;520.0
12.0;516.0
13.0;512.0
14.0;513.0
15.0;519.0
0.0;522.0
1.0;522.0
2.0;524.0
3.0;529.0
4.0;534.0
5.0;537.0
6.0;534.0
7.0;529.0
8.0;527.0
9.0;525.0
10.0;524.0
11.0;521.0
12.0;517.0
13.0;513.0
14.0;510.0
15.0;506.0
0.0;504.0
1.0;505.0
2.0;507.0
3.0;511.0
4.0;517.0
5.0;523.0
6.0;529.0
7.0;532.0
8.0;532.0
9.0;532.0
10.0;531.0
11.0;526.0
12.0;522.0
13.0;521.0
14.0;515.0
15.0;513.0
0.0;513.0
1.0;513.0
2.0;515.0
3.0;521.0
4.0;531.0
5.0;547.0
6.0;562.0
7.0;567.0
8.0;554.0
9.0;535.0
10.0;522.0
11.0;518.0
12.0;515.0
13.0;503.0
14.0;494.0
15.0;489.0
0.0;486.0
1.0;486.0
2.0;489.0
3.0;497.0
4.0;509.0
5.0;520.0
6.0;529.0
7.0;536.0
8.0;541.0
9.0;542.0
10.0;538.0
11.0;536.0
12.0;534.0
13.0;536.0
14.0;535.0
15.0;531.0
0.0;522.0
1.0;515.0
2.0;514.0
3.0;514.0
4.0;515.0
5.0;520.0
6.0;529.0
7.0;535.0
8.0;540.0
9.0;542.0
10.0;537.0
11.0;532.0
12.0;528.0
13.0;525.0
14.0;522.0
15.0;519.0
0.0;518.0
1.0;518.0
2.0;521.0
3.0;523.0
4.0;526.0
5.0;527.0
6.0;531.0
7.0;536.0
8.0;541.0
9.0;542.0
10.0;540.0
11.0;539.0
12.0;535.0
13.0;531.0
14.0;525.0
15.0;521.0
0.0;518.0
1.0;515.0
2.0;514.0
3.0;516.0
4.0;520.0
5.0;523.0
6.0;524.0
7.0;520.0
8.0;513.0
9.0;510.0
10.0;513.0
11.0;513.0
12.0;509.0
13.0;512.0
14.0;515.0
15.0;511.0
0.0;508.0
1.0;510.0
2.0;512.0
3.0;513.0
4.0;515.0
5.0;520.0
6.0;523.0
7.0;528.0
8.0;537.0
9.0;537.0
10.0;539.0
11.0;539.0
12.0;526.0
13.0;509.0
14.0;494.0
15.0;484.0
0.0;479.0
1.0;479.0
2.0;483.0
3.0;486.0
4.0;490.0
5.0;494.0
6.0;497.0
7.0;503.0
8.0;513.0
9.0;522.0
10.0;528.0
11.0;532.0
12.0;534.0
13.0;531.0
14.0;526.0
15.0;524.0
0.0;518.0
1.0;511.0
2.0;507.0
3.0;506.0
4.0;508.0
5.0;507.0
6.0;508.0
7.0;508.0
8.0;510.0
9.0;515.0
10.0;520.0
11.0;524.0
12.0;528.0
13.0;531.0
14.0;529.0
15.0;528.0
0.0;526.0
1.0;521.0
2.0;514.0
3.0;511.0
4.0;508.0
5.0;509.0
6.0;512.0
7.0;515.0
8.0;518.0
9.0;524.0
10.0;530.0
11.0;536.0
12.0;538.0
13.0;540.0
14.0;540.0
15.0;542.0
0.0;543.0
1.0;544.0
2.0;543.0
3.0;543.0
4.0;543.0
5.0;543.0
6.0;550.0
7.0;563.0
8.0;573.0
9.0;582.0
10.0;592.0
11.0;603.0
12.0;615.0
13.0;632.0
