0;480
1;478
2;477
3;478
4;480
5;479
6;478
7;478
8;480
9;479
10;479
11;482
12;484
13;485
14;481
15;482
0;483
1;484
2;483
3;480
4;478
5;473
6;468
7;466
8;464
9;462
10;460
11;458
12;453
13;447
14;441
15;440
0;438
1;432
2;425
3;418
4;416
5;417
6;421
7;427
8;440
9;448
10;449
11;449
12;451
13;456
14;464
15;467
0;467
1;466
2;467
3;463
4;457
5;455
6;454
7;451
8;449
9;449
10;451
11;452
12;451
13;451
14;453
15;454
0;455
1;458
2;462
3;460
4;458
5;457
6;459
7;461
8;459
9;455
10;453
11;455
12;457
13;456
14;457
15;457
0;459
1;459
2;457
3;459
4;461
5;462
6;461
7;459
8;454
9;449
10;441
11;439
12;438
13;442
14;445
15;444
0;444
1;445
2;445
3;441
4;438
5;437
6;438
7;439
8;438
9;436
10;439
11;437
12;429
13;420
14;422
15;432
0;439
1;446
2;455
3;465
4;470
5;473
6;475
7;474
8;469
9;464
10;457
11;451
12;445
13;445
14;448
15;456
0;470
1;485
2;497
3;511
4;521
5;534
6;540
7;542
8;545
9;551
10;559
11;559
12;547
13;536
14;528
15;523
0;519
1;513
2;510
3;508
4;507
5;505
6;506
7;507
8;504
9;497
10;487
11;477
12;472
13;471
14;470
15;468
0;465
1;462
2;458
3;455
4;452
5;447
6;443
7;439
8;433
9;425
10;419
11;414
12;413
13;411
14;412
15;419
0;427
1;432
2;434
3;443
4;457
5;464
6;462
7;461
8;463
9;465
10;467
11;468
12;467
13;467
14;466
15;464
0;461
1;459
2;459
3;456
4;454
5;454
6;451
7;454
8;455
9;459
10;464
11;467
12;473
13;481
14;483
15;483
0;484
1;487
2;490
3;491
4;490
5;489
6;489
7;492
8;493
9;494
10;492
11;490
12;488
13;488
14;488
15;489
0;490
1;487
2;484
3;483
4;483
5;483
6;482
7;480
8;477
9;473
10;470
11;468
12;463
13;458
14;457
15;454
0;454
1;453
2;452
3;457
4;462
5;465
6;467
7;468
8;474
9;479
10;483
11;486
12;487
13;489
14;488
15;486
0;483
1;484
2;484
3;480
4;477
5;482
6;489
7;496
8;498
9;496
10;496
11;497
12;496
13;495
14;494
15;493
0;492
1;491
2;490
3;491
4;490
5;489
6;490
7;488
8;487
9;484
10;485
11;485
12;488
13;491
14;491
15;488
0;490
1;489
2;489
3;491
4;494
5;497
6;500
7;502
8;503
9;504
10;503
11;499
12;496
13;491
14;489
15;488
0;486
1;485
2;487
3;485
4;483
5;482
6;482
7;482
8;481
9;481
10;478
11;475
12;471
13;472
14;479
15;489
0;500
1;507
2;507
3;506
4;506
5;508
6;508
7;504
8;501
9;500
10;500
11;500
12;498
13;497
14;495
15;493
0;489
1;486
2;484
3;483
4;484
5;487
6;487
7;488
8;489
9;490
10;490
11;490
12;490
13;489
14;488
15;486
0;485
1;483
2;481
3;479
4;475
5;470
6;467
7;467
8;466
9;468
10;470
11;469
12;475
13;486
14;495
15;499
0;503
1;507
2;510
3;510
4;508
5;503
6;498
7;496
8;499
9;500
10;501
11;496
12;492
13;492
14;495
15;500
0;500
1;499
2;494
3;489
4;485
5;480
6;474
7;472
8;478
9;486
10;499
11;511
12;514
13;513
14;508
15;502
0;500
1;500
2;498
3;495
4;492
5;491
6;489
7;484
8;487
9;488
10;488
11;487
12;487
13;486
14;491
15;497
0;495
1;491
2;489
3;487
4;485
5;482
6;481
7;478
8;473
9;472
10;469
11;467
12;467
13;469
14;470
15;473
0;476
1;478
2;475
3;470
4;466
5;463
6;466
7;469
8;471
9;471
10;472
11;474
12;473
13;472
14;476
15;485
0;491
1;491
2;488
3;486
4;487
5;492
6;496
7;496
8;496
9;497
10;498
11;496
12;491
13;489
14;487
15;487
0;489
1;490
2;492
3;492
4;492
5;490
6;490
7;490
8;497
9;499
10;497
11;494
12;492
13;495
14;499
15;503
0;507
1;506
2;507
3;507
4;506
5;502
6;501
7;499
8;496
9;494
10;492
11;492
12;495
13;496
14;496
15;495
0;492
1;493
2;492
3;490
4;490
5;492
6;496
7;498
8;498
9;498
10;500
11;505
12;511
13;515
14;512
15;505
0;497
1;492
2;484
3;478
4;478
5;479
6;479
7;484
8;488
9;489
10;491
11;493
12;496
13;497
14;497
15;503
0;509
1;519
2;529
3;530
4;525
5;525
6;527
7;532
8;540
9;546
10;545
11;540
12;536
13;529
14;521
15;514
0;514
1;520
2;525
3;522
4;520
5;521
6;522
7;520
8;516
9;513
10;510
11;503
12;498
13;495
14;494
15;495
0;495
1;500
2;502
3;502
4;499
5;500
6;497
7;496
8;497
9;499
10;500
11;502
12;500
13;500
14;499
15;496
0;495
1;497
2;497
3;494
4;492
5;490
6;487
7;483
8;480
9;480
10;485
11;489
12;497
13;506
14;511
15;511
0;512
1;512
2;508
3;506
4;510
5;513
6;517
7;519
8;518
9;517
10;515
11;515
12;512
13;509
14;507
15;504
0;507
1;511
2;514
3;520
4;522
5;522
6;519
7;515
8;509
9;507
10;504
11;505
12;516
13;519
14;517
15;515
0;514
1;511
2;515
3;519
4;519
5;519
6;519
7;518
8;523
9;527
10;528
11;527
12;527
13;528
14;528
15;524
0;521
1;521
2;520
3;521
4;522
5;521
6;524
7;529
8;532
9;528
10;523
11;520
12;519
13;517
14;514
15;513
0;517
1;518
2;524
3;527
4;529
5;529
6;530
7;529
8;530
9;528
10;531
11;532
12;531
13;531
14;529
15;531
0;528
1;525
2;520
3;513
4;505
5;500
6;499
7;493
8;488
9;487
10;491
11;500
12;508
13;511
14;506
15;499
0;501
1;506
2;510
3;510
4;510
5;510
6;507
7;504
8;507
9;510
10;512
11;511
12;507
13;501
14;494
15;489
0;487
1;487
2;487
3;487
4;487
5;485
6;483
7;483
8;485
9;484
10;485
11;486
12;487
13;485
14;480
15;478
0;476
1;472
2;470
3;464
4;459
5;458
6;463
7;470
8;476
9;483
10;484
11;484
12;483
13;479
14;479
15;480
0;478
1;475
2;474
3;471
4;467
5;461
6;452
7;446
8;444
9;441
10;450
11;466
12;483
13;492
14;490
15;490
0;493
1;496
2;496
3;494
4;491
5;492
6;490
7;486
8;487
9;489
10;489
11;488
12;487
13;484
14;484
15;482
0;479
1;478
2;475
3;472
4;468
5;467
6;465
7;465
8;467
9;470
10;472
11;474
12;480
13;481
14;483
15;483
0;481
1;478
2;474
3;472
4;475
5;477
6;478
7;477
8;477
9;476
10;471
11;461
12;462
13;460
14;457
15;460
0;474
1;491
2;506
3;518
4;533
5;548
6;558
7;572
8;581
9;590
10;603
11;613
12;623
13;627
14;620
15;611
0;602
1;594
2;586
3;575
4;565
5;563
6;563
7;560
8;552
9;543
10;538
11;534
12;531
13;530
14;526
15;519
0;512
1;505
2;503
3;497
4;493
5;490
6;487
7;486
8;486
9;484
10;483
11;482
12;479
13;479
14;480
15;479
0;480
1;482
2;484
3;486
4;486
5;488
6;490
7;492
8;491
9;489
10;487
11;486
12;487
13;489
14;490
15;490
0;489
1;495
2;504
3;516
4;524
5;526
6;519
7;519
8;518
9;516
10;524
11;536
12;541
13;544
14;548
15;551
0;555
1;556
2;550
3;551
4;560
5;560
6;555
7;546
8;546
9;547
10;544
11;545
12;549
13;553
14;554
15;550
0;547
1;545
2;545
3;542
4;540
5;540
6;537
7;533
8;531
9;531
10;528
11;528
12;527
13;525
14;526
15;526
0;528
1;528
2;529
3;530
4;529
5;530
6;526
7;521
8;520
9;519
10;517
11;517
12;516
13;515
14;513
15;513
0;515
1;515
2;513
3;513
4;513
5;512
6;510
7;508
8;508
9;511
10;514
11;513
12;508
13;501
14;500
15;499
0;497
1;505
2;514
3;521
4;529
5;535
6;534
7;532
8;531
9;531
10;531
11;532
12;534
13;538
14;540
15;539
0;536
1;535
2;539
3;544
4;547
5;548
6;547
7;544
8;543
9;538
10;532
11;526
12;523
13;524
14;523
15;523
0;523
1;522
2;522
3;523
4;527
5;535
6;535
7;531
8;532
9;540
10;542
11;540
12;542
13;542
14;543
15;548
0;552
1;558
2;559
3;561
4;561
5;559
6;556
7;550
8;547
9;543
10;540
11;543
12;544
13;542
14;537
15;534
0;533
1;528
2;526
3;528
4;531
5;532
6;529
7;525
8;519
9;512
10;512
11;516
12;512
13;508
14;502
15;503
0;511
1;523
2;531
3;533
4;535
5;540
6;542
7;543
8;543
9;549
10;556
11;561
12;565
13;569
14;563
15;558
0;553
1;550
2;547
3;544
4;543
5;541
6;541
7;540
8;542
9;546
10;550
11;547
12;542
13;535
14;531
15;525
0;520
1;516
2;510
3;503
4;500
5;499
6;500
7;500
8;501
9;503
10;503
11;502
12;500
13;497
14;495
15;494
0;494
1;493
2;493
3;491
4;487
5;486
6;486
7;484
8;482
9;486
10;490
11;489
12;489
13;491
14;491
15;490
0;493
1;493
2;490
3;490
4;490
5;488
6;483
7;483
8;487
9;491
10;493
11;494
12;495
13;502
14;511
15;524
0;535
1;535
2;540
3;548
4;547
5;540
6;533
7;528
8;526
9;527
10;525
11;526
12;528
13;527
14;522
15;519
0;517
1;518
2;518
3;518
4;517
5;513
6;504
7;496
8;496
9;491
10;490
11;496
12;495
13;494
14;502
15;509
0;508
1;503
2;499
3;494
4;490
5;489
6;492
7;497
8;502
9;504
10;505
11;508
12;508
13;507
14;504
15;502
0;500
1;499
2;501
3;502
4;498
5;492
6;493
7;498
8;508
9;510
10;510
11;513
12;519
13;524
14;522
15;522
0;517
1;508
2;500
3;497
4;495
5;492
6;487
7;484
8;488
9;490
10;491
11;497
12;499
13;502
14;504
15;501
0;494
1;489
2;489
3;492
4;494
5;496
6;498
7;497
8;496
9;497
10;497
11;498
12;496
13;487
14;480
15;475
0;473
1;475
2;489
3;502
4;509
5;509
6;509
7;508
8;510
9;512
10;514
11;512
12;502
13;493
14;487
15;482
0;478
1;473
2;471
3;466
4;465
5;469
6;475
7;474
8;472
9;472
10;472
11;475
12;478
13;481
14;485
15;485
0;486
1;486
2;484
3;482
4;477
5;472
6;470
7;465
8;463
9;463
10;462
11;464
12;467
13;475
14;487
15;494
0;495
1;497
2;496
3;492
4;489
5;487
6;485
7;483
8;480
9;478
10;476
11;474
12;473
13;473
14;476
15;481
0;484
1;484
2;480
3;480
4;484
5;490
6;493
7;494
8;495
9;496
10;495
11;494
12;492
13;489
14;486
15;483
0;483
1;489
2;493
3;497
4;507
5;516
6;519
7;513
8;509
9;505
10;502
11;502
12;504
13;508
14;513
15;517
0;518
1;519
2;519
3;523
4;521
5;521
6;521
7;519
8;516
9;514
10;511
11;508
12;503
13;498
14;492
15;490
0;489
1;490
2;491
3;492
4;492
5;494
6;497
7;498
8;494
9;490
10;490
11;487
12;485
13;486
14;488
15;492
0;496
1;500
2;503
3;504
4;507
5;509
6;512
7;510
8;508
9;505
10;500
11;499
12;504
13;503
14;500
15;503
0;512
1;520
2;521
3;519
4;518
5;515
6;514
7;514
8;517
9;519
10;521
11;522
12;518
13;513
14;505
15;497
0;497
1;498
2;497
3;496
4;495
5;491
6;487
7;483
8;480
9;479
10;479
11;478
12;476
13;479
14;481
15;483
0;485
1;489
2;493
3;493
4;493
5;492
6;491
7;489
8;487
9;488
10;491
11;494
12;493
13;490
14;486
15;487
0;492
1;496
2;503
3;513
4;520
5;525
6;523
7;515
8;510
9;501
10;496
11;504
12;513
13;514
14;508
15;502
0;502
1;505
2;511
3;522
4;531
5;537
6;536
7;536
8;534
9;532
10;530
11;524
12;519
13;520
14;523
15;520
0;514
1;514
2;509
3;507
4;505
5;504
6;505
7;504
8;503
9;503
10;501
11;502
12;506
13;515
14;527
15;537
0;546
1;556
2;566
3;579
4;598
5;620
6;650
7;679
8;697
9;710
10;711
11;705
12;687
13;668
14;649
15;630
0;611
1;595
2;582
3;569
4;556
5;545
6;536
7;532
8;529
9;521
10;510
11;501
12;495
13;488
14;482
15;481
0;482
1;480
2;478
3;480
4;479
5;478
6;479
7;481
8;484
9;493
10;498
11;499
12;497
13;494
14;496
15;497
0;494
1;492
2;493
3;496
4;503
5;512
6;518
7;519
8;519
9;519
10;520
11;520
12;519
13;518
14;519
15;520
0;516
1;514
2;516
3;518
4;522
5;526
6;528
7;527
8;524
9;520
10;517
11;512
12;509
13;510
14;508
15;506
0;503
1;501
2;498
3;495
4;490
5;487
6;486
7;486
8;486
9;489
10;492
11;495
12;497
13;498
14;497
15;499
0;499
1;500
2;501
3;498
4;496
5;498
6;500
7;497
8;495
9;501
10;504
11;504
12;507
13;509
14;510
15;508
0;508
1;512
2;514
3;516
4;519
5;520
6;520
7;524
8;525
9;522
10;520
11;523
12;526
13;528
14;529
15;528
0;527
1;524
2;519
3;513
4;512
5;518
6;524
7;523
8;520
9;517
10;516
11;514
12;515
13;519
14;522
15;525
0;526
1;526
2;523
3;519
4;518
5;513
6;510
7;507
8;509
9;512
10;517
11;521
12;524
13;523
14;519
15;517
0;519
1;521
2;524
3;528
4;531
5;533
6;529
7;528
8;535
9;532
10;526
11;524
12;519
13;514
14;510
15;513
0;520
1;527
2;534
3;533
4;530
5;525
6;526
7;530
8;531
9;532
10;532
11;525
12;524
13;528
14;527
15;524
0;524
1;527
2;526
3;521
4;517
5;518
6;519
7;512
8;506
9;503
10;504
11;508
12;516
13;521
14;521
15;523
0;526
1;527
2;525
3;524
4;524
5;524
6;521
7;518
8;517
9;518
10;517
11;515
12;514
13;514
14;518
15;521
0;520
1;519
2;519
3;518
4;518
5;517
6;515
7;510
8;510
9;514
10;519
11;520
12;517
13;511
14;506
15;499
0;490
1;484
2;485
3;484
4;485
5;485
6;484
7;484
8;487
9;488
10;485
11;488
12;491
13;496
14;498
15;499
0;498
1;502
2;504
3;504
4;502
5;498
6;496
7;496
8;498
9;497
10;499
11;500
12;499
13;496
14;494
15;494
0;492
1;491
2;487
3;486
4;487
5;486
6;487
7;488
8;491
9;494
10;492
11;490
12;490
13;490
14;491
15;491
0;492
1;495
2;496
3;499
4;499
5;497
6;495
7;493
8;491
9;489
10;486
11;484
12;482
13;479
14;478
15;480
0;482
1;484
2;485
3;485
4;483
5;482
6;484
7;487
8;490
9;492
10;491
11;488
12;480
13;474
14;473
15;469
0;470
1;477
2;484
3;490
4;492
5;494
6;497
7;502
8;502
9;500
10;507
11;513
12;516
13;516
14;517
15;514
0;509
1;505
2;502
3;496
4;495
5;497
6;498
7;499
8;503
9;508
10;512
11;519
12;524
13;527
14;526
15;526
0;524
1;521
2;520
3;517
4;515
5;515
6;516
7;517
8;515
9;516
10;518
11;522
12;525
13;526
14;524
15;524
0;523
1;522
2;522
3;521
4;520
5;521
6;523
7;518
8;513
9;509
10;503
11;498
12;498
13;497
14;500
15;497
0;492
1;490
2;492
3;495
4;499
5;502
6;502
7;502
8;504
9;506
10;509
11;507
12;509
13;515
14;516
15;515
0;513
1;513
2;515
3;516
4;518
5;519
6;518
7;520
8;526
9;531
10;533
11;535
12;537
13;538
14;538
15;535
0;527
1;524
2;525
3;526
4;527
5;531
6;531
7;530
8;527
9;527
10;527
11;527
12;529
13;534
14;535
15;528
0;517
1;510
2;505
3;501
4;501
5;502
6;504
7;504
8;505
9;504
10;509
11;508
12;507
13;507
14;506
15;508
0;505
1;502
2;500
3;503
4;499
5;496
6;499
7;503
8;504
9;503
10;504
11;504
12;504
13;507
14;508
15;508
0;506
1;505
2;506
3;505
4;502
5;499
6;501
7;504
8;510
9;518
10;522
11;530
12;535
13;537
14;534
15;531
0;527
1;523
2;521
3;520
4;521
5;523
6;523
7;523
8;523
9;525
10;528
11;528
12;525
13;521
14;521
15;522
0;518
1;513
2;509
3;510
4;517
5;527
6;529
7;526
8;521
9;522
10;520
11;516
12;515
13;513
14;511
15;510
0;511
1;513
2;511
3;512
4;519
5;522
6;521
7;521
8;520
9;518
10;515
11;513
12;513
13;523
14;531
15;529
0;527
1;526
2;526
3;528
4;532
5;537
6;539
7;537
8;535
9;530
10;530
11;534
12;540
13;543
14;544
15;541
0;537
1;532
2;530
3;529
4;531
5;528
6;525
7;519
8;515
9;512
10;513
11;515
12;515
13;517
14;518
15;515
0;511
1;504
2;501
3;497
4;495
5;498
6;499
7;499
8;499
9;505
10;510
11;505
12;500
13;499
14;499
15;503
0;504
1;502
2;499
3;490
4;485
5;482
6;479
7;476
8;473
9;467
10;467
11;473
12;477
13;480
14;487
15;495
0;497
1;496
2;493
3;488
4;484
5;482
6;481
7;480
8;479
9;480
10;483
11;485
12;485
13;483
14;482
15;483
0;485
1;483
2;481
3;482
4;480
5;476
6;476
7;477
8;477
9;475
10;479
11;480
12;480
13;480
14;477
15;476
0;477
1;479
2;484
3;483
4;479
5;476
6;474
7;475
8;481
9;492
10;496
11;499
12;499
13;498
14;497
15;499
0;501
1;497
2;494
3;491
4;490
5;488
6;485
7;481
8;475
9;469
10;465
11;465
12;465
13;468
14;470
15;471
0;470
1;469
2;465
3;460
4;463
5;470
6;475
7;478
8;478
9;480
10;479
11;483
12;486
13;487
14;489
15;489
0;486
1;483
2;480
3;482
4;492
5;507
6;522
7;536
8;553
9;568
10;587
11;603
12;623
13;644
14;664
15;678
0;688
1;689
2;683
3;668
4;649
5;627
6;605
7;588
8;568
9;550
10;531
11;515
12;502
13;488
14;476
15;469
0;467
1;467
2;465
3;470
4;476
5;474
6;473
7;473
8;478
9;485
10;488
11;490
12;485
13;477
14;473
15;469
0;465
1;461
2;457
3;454
4;451
5;452
6;455
7;457
8;464
9;475
10;484
11;489
12;491
13;489
14;487
15;488
0;495
1;502
2;507
3;513
4;518
5;514
6;507
7;506
8;502
9;495
10;493
11;494
12;491
13;487
14;488
15;491
0;495
1;494
2;491
3;497
4;503
5;505
6;507
7;507
8;503
9;499
10;496
11;494
12;496
13;499
14;499
15;497
0;497
1;497
2;495
3;492
4;490
5;488
6;482
7;480
8;484
9;487
10;487
11;487
12;487
13;488
14;488
15;486
0;488
1;490
2;486
3;479
4;476
5;476
6;480
7;491
8;499
9;502
10;501
11;499
12;495
13;494
14;495
15;495
0;495
1;500
2;505
3;505
4;504
5;502
6;499
7;495
8;489
9;482
10;479
11;477
12;480
13;484
14;486
15;487
0;487
1;487
2;483
3;482
4;485
5;483
6;481
7;482
8;484
9;482
10;481
11;483
12;486
13;486
14;486
15;486
0;484
1;485
2;486
3;482
4;475
5;467
6;468
7;468
8;465
9;459
10;462
11;478
12;496
13;503
14;498
15;495
0;491
1;489
2;494
3;494
4;492
5;494
6;493
7;487
8;484
9;481
10;482
11;487
12;494
13;497
14;496
15;492
0;492
1;491
2;489
3;495
4;502
5;505
6;505
7;503
8;501
9;500
10;502
11;504
12;504
13;504
14;505
15;504
0;502
1;499
2;496
3;492
4;492
5;493
6;492
7;492
8;491
9;487
10;486
11;487
12;487
13;484
14;482
15;480
0;482
1;484
2;486
3;486
4;489
5;489
6;488
7;491
8;496
9;496
10;493
11;487
12;482
13;483
14;482
15;480
0;477
1;476
2;475
3;475
4;475
5;479
6;481
7;485
8;491
9;495
10;496
11;499
12;499
13;496
14;493
15;489
0;489
1;490
2;488
3;485
4;483
5;483
6;484
7;488
8;487
9;485
10;494
11;499
12;500
13;504
14;508
15;512
0;508
1;504
2;499
3;495
4;495
5;497
6;496
7;497
8;497
9;494
10;491
11;487
12;483
13;476
14;468
15;466
0;469
1;474
2;474
3;470
4;466
5;465
6;462
7;462
8;466
9;470
10;471
11;475
12;476
13;476
14;475
15;476
0;478
1;480
2;484
3;487
4;487
5;489
6;492
7;496
8;498
9;497
10;498
11;498
12;496
13;494
14;491
15;489
0;486
1;484
2;482
3;482
4;480
5;482
6;484
7;482
8;478
9;479
10;482
11;485
12;489
13;494
14;494
15;496
0;497
1;496
2;493
3;492
4;495
5;498
6;498
7;493
8;487
9;485
10;489
11;494
12;498
13;499
14;498
15;495
0;494
1;496
2;498
3;498
4;494
5;488
6;483
7;483
8;486
9;490
10;492
11;493
12;494
13;496
14;497
15;496
0;494
1;494
2;492
3;490
4;486
5;486
6;484
7;483
8;483
9;480
10;481
11;484
12;488
13;494
14;496
15;493
0;491
1;491
2;488
3;483
4;479
5;474
6;473
7;474
8;480
9;485
10;486
11;484
12;481
13;482
14;486
15;490
0;494
1;495
2;498
3;503
4;509
5;510
6;504
7;498
8;493
9;489
10;486
11;490
12;496
13;498
14;496
15;497
0;500
1;506
2;510
3;511
4;516
5;518
6;515
7;510
8;502
9;495
10;492
11;495
12;502
13;504
14;499
15;503
0;507
1;509
2;509
3;508
4;507
5;510
6;510
7;509
8;508
9;507
10;507
11;506
12;503
13;500
14;498
15;500
0;503
1;507
2;510
3;506
4;497
5;489
6;487
7;484
8;479
9;477
10;479
11;480
12;480
13;482
14;483
15;485
0;487
1;491
2;493
3;492
4;494
5;496
6;495
7;498
8;503
9;504
10;504
11;505
12;507
13;503
14;501
15;499
0;496
1;494
2;493
3;494
4;493
5;489
6;489
7;493
8;500
9;504
10;499
11;495
12;494
13;495
14;494
15;490
0;483
1;480
2;480
3;476
4;476
5;482
6;487
7;492
8;490
9;487
10;496
11;504
12;508
13;508
14;510
15;510
0;508
1;508
2;509
3;510
4;507
5;503
6;502
7;504
8;510
9;512
10;508
11;507
12;508
13;511
14;508
15;504
0;499
1;497
2;499
3;500
4;503
5;504
6;502
7;499
8;498
9;496
10;495
11;492
12;488
13;485
14;483
15;482
0;482
1;483
2;487
3;496
4;501
5;504
6;508
7;510
8;507
9;502
10;497
11;494
12;491
13;487
14;488
15;491
0;495
1;498
2;499
3;504
4;507
5;508
6;510
7;512
8;516
9;519
10;517
11;512
12;506
13;497
14;500
15;506
0;511
1;512
2;510
3;504
4;503
5;507
6;510
7;513
8;519
9;525
10;528
11;529
12;531
13;529
14;526
15;527
0;525
1;523
2;522
3;521
4;517
5;515
6;519
7;520
8;519
9;520
10;521
11;520
12;518
13;517
14;514
15;511
0;512
1;513
2;513
3;512
4;510
5;507
6;505
7;505
8;507
9;509
10;509
11;510
12;519
13;527
14;527
15;525
0;527
1;529
2;531
3;533
4;532
5;527
6;525
7;523
8;521
9;521
10;524
11;526
12;526
13;527
14;530
15;530
0;527
1;521
2;515
3;506
4;498
5;491
6;486
7;485
8;490
9;492
10;494
11;504
12;516
13;524
14;521
15;515
0;510
1;505
2;502
3;498
4;495
5;493
6;491
7;488
8;486
9;482
10;480
11;483
12;489
13;495
14;498
15;496
0;490
1;487
2;486
3;485
4;485
5;484
6;484
7;485
8;484
9;485
10;484
11;482
12;480
13;481
14;480
15;477
0;475
1;473
2;470
3;467
4;464
5;462
6;462
7;461
8;458
9;457
10;460
11;463
12;463
13;463
14;460
15;457
0;453
1;455
2;455
3;455
4;461
5;474
6;483
7;484
8;481
9;481
10;483
11;482
12;482
13;483
14;483
15;478
0;477
1;474
2;470
3;472
4;474
5;472
6;473
7;479
8;483
9;482
10;480
11;483
12;489
13;497
14;505
15;511
0;511
1;507
2;500
3;494
4;488
5;483
6;481
7;480
8;478
9;478
10;478
11;479
12;475
13;468
14;471
15;470
0;468
1;467
2;465
3;464
4;462
5;460
6;463
7;466
8;477
9;489
10;503
11;515
12;526
13;537
14;551
15;569
0;585
1;601
2;615
3;624
4;624
5;613
6;597
7;577
8;553
9;533
10;520
11;509
12;498
13;492
14;488
15;480
0;473
1;470
2;464
3;451
4;437
5;425
6;412
7;400
8;388
9;380
10;376
11;371
12;371
13;380
14;386
15;388
0;387
1;388
2;390
3;388
4;388
5;388
6;389
7;389
8;390
9;395
10;404
11;412
12;413
13;409
14;407
15;406
0;404
1;409
2;415
3;421
4;423
5;423
6;421
7;421
8;421
9;422
10;420
11;416
12;415
13;413
14;413
15;418
0;422
1;429
2;433
3;436
4;437
5;435
6;434
7;433
8;434
9;435
10;432
11;430
12;429
13;430
14;430
15;432
0;439
1;446
2;450
3;452
4;451
5;447
6;442
7;440
8;443
9;449
10;452
11;452
12;453
13;455
14;453
15;453
0;452
1;447
2;444
3;447
4;451
5;450
6;446
7;444
8;440
9;435
10;432
11;432
12;433
13;434
14;432
15;432
0;431
1;433
2;435
3;435
4;434
5;431
6;429
7;429
8;428
9;425
10;422
11;424
12;426
13;427
14;429
15;433
0;438
1;443
2;444
3;442
4;447
5;449
6;450
7;455
8;459
9;461
10;458
11;453
12;450
13;446
14;445
15;441
0;442
1;446
2;446
3;448
4;453
5;463
6;472
7;477
8;478
9;477
10;475
11;472
12;467
13;463
14;460
15;455
0;451
1;445
2;443
3;446
4;448
5;448
6;449
7;451
8;455
9;455
10;457
11;456
12;458
13;459
14;462
15;463
0;461
1;462
2;463
3;463
4;464
5;468
6;475
7;481
8;482
9;480
10;477
11;480
12;484
13;487
14;487
15;486
0;488
1;491
2;496
3;501
4;504
5;506
6;504
7;500
8;497
9;495
10;496
11;496
12;494
13;493
14;496
15;495
0;500
1;507
2;507
3;503
4;499
5;499
6;498
7;498
8;501
9;507
10;511
11;514
12;518
13;520
14;520
15;521
0;525
1;527
2;527
3;523
4;520
5;518
6;517
7;519
8;521
9;522
10;525
11;526
12;524
13;521
14;518
15;514
0;512
1;512
2;513
3;515
4;515
5;516
6;521
7;527
8;528
9;526
10;524
11;521
12;519
13;519
14;523
15;529
0;534
1;536
2;531
3;526
4;524
5;524
6;523
7;523
8;526
9;531
10;532
11;531
12;526
13;521
14;519
15;515
0;516
1;523
2;527
3;529
4;535
5;539
6;541
7;545
8;551
9;549
10;544
11;540
12;538
13;534
14;524
15;519
0;515
1;513
2;514
3;515
4;514
5;517
6;519
7;520
8;519
9;518
10;519
11;521
12;525
13;528
14;532
15;536
0;537
1;537
2;538
3;540
4;544
5;547
6;545
7;539
8;536
9;532
10;529
11;527
12;526
13;530
14;534
15;539
0;539
1;537
2;537
3;534
4;531
5;531
6;529
7;529
8;530
9;533
10;539
11;541
12;540
13;537
14;536
15;532
0;527
1;522
2;518
3;515
4;515
5;514
6;513
7;515
8;518
9;519
10;521
11;524
12;523
13;519
14;516
15;512
0;507
1;504
2;505
3;508
4;509
5;510
6;510
7;510
8;505
9;500
10;497
11;492
12;488
13;492
14;494
15;492
0;491
1;489
2;487
3;487
4;494
5;497
6;496
7;495
8;497
9;499
10;501
11;497
12;491
13;491
14;497
15;502
0;507
1;512
2;515
3;515
4;513
5;507
6;502
7;499
8;501
9;503
10;503
11;507
12;512
13;514
14;516
15;515
0;514
1;513
2;512
3;512
4;511
5;508
6;505
7;499
8;497
9;495
10;495
11;496
12;498
13;499
14;502
15;504
0;501
1;499
2;499
3;498
4;496
5;495
6;492
7;486
8;480
9;478
10;479
11;479
12;480
13;478
14;477
15;477
0;480
1;483
2;485
3;491
4;497
5;499
6;498
7;498
8;502
9;504
10;503
11;501
12;496
13;493
14;490
15;491
0;497
1;502
2;499
3;497
4;495
5;493
6;492
7;495
8;495
9;492
10;493
11;492
12;488
13;484
14;487
15;495
0;503
1;510
2;506
3;500
4;496
5;494
6;494
7;494
8;493
9;495
10;495
11;493
12;490
13;488
14;488
15;488
0;489
1;490
2;487
3;483
4;483
5;485
6;493
7;496
8;497
9;499
10;497
11;493
12;491
13;490
14;490
15;493
0;499
1;507
2;508
3;507
4;507
5;503
6;496
7;492
8;491
9;487
10;484
11;483
12;484
13;484
14;485
15;484
0;483
1;482
2;483
3;484
4;483
5;481
6;483
7;488
8;488
9;484
10;487
11;495
12;500
13;501
14;500
15;500
0;500
1;501
2;500
3;496
4;493
5;494
6;494
7;493
8;493
9;492
10;492
11;491
12;487
13;482
14;481
15;482
0;493
1;508
2;520
3;522
4;521
5;522
6;524
7;525
8;527
9;527
10;523
11;518
12;511
13;507
14;507
15;509
0;514
1;519
2;521
3;524
4;526
5;529
6;531
7;531
8;530
9;529
10;530
11;531
12;531
13;531
14;530
15;529
0;529
1;528
2;529
3;528
4;528
5;527
6;527
7;531
8;534
9;533
10;530
11;530
12;528
13;528
14;533
15;542
0;550
1;554
2;552
3;551
4;551
5;554
6;557
7;558
8;558
9;556
10;551
11;547
12;539
13;535
14;534
15;533
0;530
1;531
2;541
3;548
4;551
5;550
6;543
7;537
8;533
9;531
10;533
11;534
12;532
13;533
14;532
15;531
0;529
1;532
2;538
3;543
4;543
5;542
6;542
7;540
8;540
9;541
10;541
11;541
12;542
13;545
14;542
15;536
0;532
1;526
2;523
3;525
4;530
5;536
6;538
7;536
8;532
9;529
10;529
11;530
12;532
13;531
14;528
15;527
0;526
1;524
2;526
3;528
4;526
5;525
6;528
7;531
8;531
9;531
10;534
11;534
12;536
13;536
14;535
15;533
0;533
1;530
2;526
3;523
4;523
5;524
6;526
7;528
8;528
9;531
10;536
11;536
12;530
13;530
14;535
15;535
0;536
1;534
2;533
3;535
4;540
5;547
6;553
7;557
8;562
9;563
10;557
11;552
12;544
13;542
14;547
15;552
0;554
1;553
2;552
3;551
4;548
5;544
6;546
7;548
8;549
9;551
10;551
11;555
12;553
13;551
14;552
15;551
0;548
1;544
2;543
3;537
4;529
5;524
6;524
7;524
8;524
9;527
10;531
11;536
12;539
13;540
14;545
15;555
0;568
1;579
2;591
3;604
4;617
5;631
6;648
7;665
8;681
9;702
10;718
11;731
12;735
13;728
14;713
15;700
0;684
1;666
2;647
3;629
4;613
5;598
6;587
7;579
8;572
9;566
10;564
11;560
12;556
13;550
14;544
15;537
0;532
1;527
2;521
3;521
4;524
5;526
6;531
7;537
8;538
9;535
10;530
11;526
12;528
13;527
14;530
15;537
0;539
1;536
2;535
3;535
4;533
5;533
6;536
7;538
8;540
9;544
10;547
11;545
12;545
13;552
14;556
15;558
0;558
1;559
2;559
3;564
4;567
5;568
6;563
7;558
8;552
9;551
10;554
11;556
12;555
13;555
14;553
15;553
0;552
1;552
2;552
3;552
4;550
5;550
6;550
7;546
8;543
9;544
10;546
11;550
12;555
13;560
14;562
15;566
0;569
1;572
2;572
3;572
4;572
5;572
6;570
7;572
8;572
9;572
10;573
11;571
12;567
13;561
14;560
15;558
0;553
1;547
2;543
3;543
4;550
5;566
6;580
7;586
8;594
9;603
10;602
11;599
12;600
13;598
14;596
15;594
0;590
1;588
2;581
3;572
4;565
5;558
6;554
7;556
8;559
9;560
10;559
11;562
12;567
13;568
14;566
15;566
0;566
1;565
2;566
3;563
4;561
5;558
6;553
7;550
8;546
9;543
10;543
11;546
12;551
13;557
14;559
15;561
0;562
1;561
2;561
3;562
4;562
5;561
6;561
7;560
8;556
9;552
10;551
11;547
12;543
13;541
14;538
15;533
0;535
1;545
2;553
3;554
4;555
5;559
6;568
7;571
8;576
9;583
10;587
11;585
12;581
13;575
14;571
15;568
0;569
1;569
2;565
3;568
4;576
5;583
6;582
7;580
8;573
9;567
10;562
11;559
12;556
13;561
14;572
15;584
0;590
1;596
2;597
3;592
4;589
5;586
6;583
7;583
8;584
9;582
10;575
11;571
12;572
13;569
14;563
15;559
0;561
1;563
2;564
3;566
4;568
5;569
6;568
7;568
8;570
9;571
10;571
11;568
12;564
13;563
14;561
15;561
0;560
1;560
2;560
3;565
4;569
5;569
6;568
7;571
8;575
9;577
10;577
11;575
12;572
13;568
14;567
15;563
0;557
1;552
2;553
3;557
4;556
5;554
6;554
7;554
8;556
9;555
10;556
11;556
12;551
13;547
14;542
15;540
0;543
1;544
2;549
3;549
4;551
5;556
6;559
7;557
8;556
9;559
10;561
11;564
12;564
13;560
14;562
15;564
0;565
1;567
2;568
3;564
4;560
5;557
6;557
7;554
8;553
9;556
10;559
11;563
12;566
13;562
14;556
15;553
0;547
1;547
2;556
3;564
4;567
5;567
6;569
7;567
8;561
9;557
10;559
11;566
12;569
13;567
14;565
15;562
0;557
1;555
2;555
3;556
4;555
5;555
6;553
7;553
8;552
9;555
10;557
11;556
12;556
13;556
14;555
15;553
0;550
1;551
2;551
3;551
4;548
5;545
6;542
7;540
8;540
9;534
10;531
11;537
12;545
13;548
14;547
15;546
0;550
1;556
2;559
3;559
4;558
5;554
6;555
7;555
8;555
9;557
10;558
11;561
12;563
13;561
14;559
15;558
0;556
1;558
2;562
3;566
4;567
5;566
6;563
7;559
8;557
9;556
10;556
11;557
12;557
13;556
14;551
15;548
0;548
1;544
2;541
3;540
4;539
5;540
6;541
7;543
8;546
9;548
10;550
11;551
12;552
13;554
14;556
15;559
0;558
1;556
2;558
3;553
4;546
5;539
6;533
7;529
8;527
9;531
10;540
11;550
12;553
13;556
14;567
15;575
0;575
1;571
2;564
3;557
4;550
5;547
6;540
7;537
8;548
9;563
10;571
11;574
12;576
13;574
14;573
15;566
0;560
1;559
2;558
3;555
4;553
5;552
6;551
7;553
8;556
9;557
10;557
11;556
12;553
13;549
14;550
15;555
0;563
1;570
2;573
3;570
4;567
5;563
6;558
7;551
8;546
9;543
10;541
11;540
12;540
13;541
14;540
15;542
0;551
1;555
2;556
3;558
4;558
5;558
6;560
7;558
8;555
9;551
10;547
11;544
12;547
13;548
14;546
15;544
0;541
1;536
2;534
3;532
4;529
5;527
6;529
7;530
8;527
9;527
10;530
11;533
12;534
13;536
14;540
15;539
0;541
1;543
2;538
3;534
4;531
5;529
6;527
7;526
8;528
9;528
10;520
11;515
12;511
13;508
14;521
15;535
0;543
1;547
2;548
3;546
4;543
5;545
6;548
7;552
8;553
9;554
10;551
11;547
12;546
13;544
14;546
15;548
0;548
1;548
2;550
3;551
4;550
5;547
6;548
7;547
8;545
9;543
10;542
11;545
12;548
13;550
14;551
15;552
0;554
1;555
2;556
3;557
4;556
5;556
6;555
7;556
8;558
9;558
10;558
11;555
12;550
13;544
14;543
15;544
0;544
1;545
2;544
3;544
4;545
5;546
6;547
7;548
8;545
9;541
10;542
11;545
12;549
13;554
14;558
15;560
0;560
1;557
2;555
3;555
4;556
5;559
6;558
7;557
8;555
9;552
10;555
11;555
12;546
13;536
14;527
15;520
0;523
1;537
2;551
3;553
4;547
5;540
6;550
7;563
8;567
9;561
10;555
11;549
12;545
13;542
14;539
15;537
0;536
1;535
2;534
3;535
4;537
5;538
6;538
7;538
8;537
9;534
10;532
11;530
12;527
13;521
14;515
15;513
0;508
1;503
2;502
3;502
4;501
5;501
6;503
7;505
8;508
9;505
10;503
11;502
12;501
13;500
14;499
15;498
0;497
1;496
2;495
3;496
4;497
5;499
6;501
7;500
8;500
9;502
10;508
11;508
12;506
13;504
14;501
15;496
0;493
1;491
2;487
3;485
4;484
5;481
6;481
7;482
8;481
9;483
10;486
11;489
12;492
13;492
14;487
15;483
0;487
1;489
2;489
3;489
4;490
5;492
6;493
7;487
8;485
9;488
10;492
11;496
12;500
13;500
14;497
15;497
0;496
1;500
2;500
3;498
4;496
5;495
6;494
7;492
8;492
9;495
10;494
11;489
12;483
13;478
14;472
15;469
0;467
1;464
2;462
3;462
4;466
5;473
6;475
7;474
8;475
9;476
10;476
11;480
12;491
13;504
14;515
15;524
0;535
1;550
2;564
3;579
4;600
5;624
6;649
7;679
8;706
9;725
10;738
11;738
12;725
13;703
14;679
15;659
0;640
1;620
2;599
3;576
4;557
5;543
6;529
7;519
8;514
9;513
10;513
11;509
12;500
13;494
14;487
15;487
0;484
1;481
2;477
3;473
4;471
5;471
6;474
7;480
8;479
9;472
10;465
11;466
12;464
13;460
14;457
15;455
0;456
1;462
2;469
3;474
4;475
5;478
6;479
7;480
8;483
9;485
10;483
11;483
12;486
13;489
14;487
15;487
0;489
1;488
2;488
3;492
4;499
5;506
6;510
7;512
8;517
9;523
10;525
11;528
12;532
13;534
14;533
15;534
0;534
1;537
2;536
3;528
4;527
5;527
6;522
7;520
8;522
9;524
10;526
11;526
12;530
13;533
14;534
15;532
0;533
1;534
2;534
3;534
4;537
5;540
6;541
7;543
8;543
9;546
10;549
11;548
12;547
13;547
14;548
15;548
0;546
1;540
2;532
3;531
4;533
5;534
6;531
7;533
8;537
9;543
10;543
11;539
12;538
13;539
14;537
15;532
0;528
1;525
2;526
3;525
4;520
5;517
6;515
7;519
8;525
9;530
10;537
11;549
12;562
13;566
14;564
15;565
0;566
1;562
2;555
3;547
4;538
5;533
6;534
7;537
8;536
9;534
10;539
11;545
12;551
13;553
14;553
15;548
0;545
1;544
2;542
3;541
4;546
5;548
6;547
7;543
8;539
9;537
10;535
11;535
12;536
13;536
14;540
15;546
0;556
1;562
2;563
3;562
4;560
5;556
6;550
7;547
8;543
9;538
10;534
11;544
12;557
13;563
14;560
15;557
0;557
1;558
2;556
3;554
4;552
5;554
6;556
7;558
8;558
9;558
10;557
11;556
12;557
13;553
14;547
15;542
0;537
1;533
2;529
3;525
4;523
5;526
6;530
7;533
8;535
9;534
10;535
11;533
12;530
13;528
14;532
15;536
0;540
1;542
2;544
3;542
4;537
5;535
6;538
7;540
8;537
9;536
10;538
11;536
12;531
13;529
14;534
15;541
0;548
1;554
2;555
3;554
4;551
5;547
6;545
7;543
8;543
9;542
10;539
11;532
12;529
13;528
14;528
15;530
0;529
1;523
2;518
3;514
4;518
5;519
6;519
7;520
8;523
9;523
10;523
11;521
12;515
13;513
14;515
15;515
0;513
1;509
2;508
3;505
4;503
5;500
6;500
7;502
8;503
9;503
10;499
11;497
12;495
13;497
14;502
15;502
0;501
1;497
2;494
3;492
4;492
5;494
6;498
7;497
8;491
9;487
10;484
11;481
12;477
13;475
14;479
15;485
0;489
1;492
2;491
3;488
4;487
5;492
6;501
7;509
8;510
9;508
10;502
11;495
12;488
13;480
14;476
15;475
0;472
1;468
2;472
3;481
4;493
5;499
6;502
7;505
8;502
9;496
10;489
11;482
12;475
13;470
14;461
15;456
0;459
1;463
2;467
3;472
4;480
5;490
6;494
7;493
8;489
9;483
10;479
11;478
12;477
13;476
14;476
15;474
0;471
1;466
2;464
3;463
4;465
5;468
6;471
7;471
8;468
9;465
10;465
11;464
12;466
13;467
14;468
15;466
0;460
1;459
2;461
3;463
4;463
5;463
6;463
7;463
8;463
9;461
10;458
11;457
12;455
13;456
14;461
15;459
0;458
1;459
2;461
3;463
4;469
5;475
6;474
7;475
8;475
9;478
10;480
11;481
12;484
13;488
14;487
15;482
0;479
1;476
2;472
3;472
4;472
5;474
6;479
7;479
8;480
9;489
10;492
11;485
12;480
13;481
14;483
15;484
0;482
1;477
2;477
3;478
4;479
5;483
6;487
7;491
8;493
9;495
10;496
11;495
12;494
13;494
14;491
15;486
0;483
1;478
2;473
3;474
4;476
5;480
6;480
7;479
8;481
9;484
10;487
11;488
12;487
13;485
14;483
15;478
0;469
1;463
2;465
3;471
4;473
5;473
6;478
7;486
8;489
9;493
10;497
11;502
12;499
13;495
14;493
15;487
0;485
1;486
2;486
3;489
4;494
5;495
6;495
7;497
8;499
9;498
10;499
11;500
12;498
13;494
14;491
15;489
0;486
1;480
2;479
3;476
4;470
5;467
6;463
7;464
8;469
9;476
10;477
11;476
12;476
13;480
14;487
15;492
0;496
1;499
2;496
3;496
4;496
5;491
6;484
7;480
8;478
9;476
10;477
11;481
12;487
13;487
14;487
15;485
0;482
1;480
2;476
3;473
4;473
5;475
6;479
7;483
8;484
9;483
10;485
11;485
12;485
13;485
14;487
15;494
0;498
1;500
2;503
3;506
4;505
5;504
6;502
7;499
8;497
9;493
10;487
11;483
12;484
13;490
14;498
15;506
0;514
1;519
2;518
3;508
4;503
5;502
6;499
7;496
8;497
9;503
10;503
11;499
12;497
13;499
14;507
15;516
0;520
1;518
2;515
3;512
4;508
5;508
6;507
7;502
8;498
9;494
10;496
11;503
12;512
13;516
14;513
15;510
0;508
1;508
2;504
3;499
4;494
5;486
6;476
7;473
8;477
9;484
10;490
11;493
12;493
13;491
14;490
15;493
0;492
1;488
2;485
3;480
4;473
5;464
6;457
7;454
8;458
9;466
10;471
11;470
12;470
13;472
14;472
15;472
0;472
1;475
2;476
3;477
4;479
5;480
6;479
7;474
8;471
9;465
10;460
11;464
12;468
13;471
14;473
15;471
0;470
1;468
2;467
3;467
4;470
5;472
6;475
7;476
8;479
9;478
10;471
11;464
12;462
13;463
14;466
15;473
0;486
1;491
2;496
3;497
4;498
5;495
6;490
7;485
8;485
9;483
10;485
11;487
12;489
13;490
14;487
15;484
0;483
1;483
2;489
3;492
4;493
5;495
6;496
7;497
8;501
9;504
10;505
11;502
12;496
13;491
14;487
15;489
0;490
1;488
2;487
3;489
4;488
5;485
6;479
7;475
8;473
9;468
10;460
11;449
12;440
13;428
14;431
15;452
0;470
1;480
2;484
3;483
4;480
5;476
6;474
7;472
8;471
9;475
10;483
11;489
12;496
13;511
14;526
15;543
0;562
1;580
2;598
3;621
4;646
5;670
6;693
7;704
8;703
9;691
10;672
11;655
12;638
13;620
14;598
15;578
0;560
1;546
2;536
3;523
4;510
5;501
6;492
7;484
8;479
9;475
10;467
11;457
12;454
13;454
14;453
15;450
0;447
1;441
2;437
3;434
4;429
5;430
6;435
7;440
8;445
9;448
10;447
11;450
12;456
13;458
14;452
15;452
0;456
1;459
2;460
3;461
4;459
5;456
6;459
7;468
8;470
9;475
10;476
11;470
12;460
13;459
14;466
15;478
0;488
1;499
2;505
3;512
4;510
5;504
6;501
7;503
8;504
9;505
10;503
11;497
12;494
13;494
14;496
15;498
0;499
1;498
2;494
3;492
4;491
5;486
6;482
7;483
8;484
9;491
10;497
11;497
12;492
13;491
14;490
15;489
0;491
1;494
2;494
3;493
4;491
5;490
6;490
7;492
8;495
9;497
10;494
11;490
12;490
13;490
14;492
15;495
0;493
1;491
2;492
3;499
4;502
5;501
6;496
7;489
8;489
9;493
10;499
11;506
12;507
13;504
14;498
15;491
0;491
1;487
2;485
3;491
4;497
5;497
6;499
7;504
8;504
9;506
10;506
11;503
12;501
13;497
14;492
15;488
0;489
1;496
2;503
3;507
4;512
5;513
6;513
7;513
8;512
9;508
10;506
11;508
12;507
13;503
14;499
15;494
0;487
1;480
2;475
3;471
4;474
5;484
6;487
7;491
8;495
9;497
10;504
11;513
12;516
13;513
14;509
15;504
0;502
1;501
2;501
3;501
4;502
5;499
6;498
7;495
8;494
9;494
10;496
11;499
12;501
13;504
14;504
15;504
0;505
1;506
2;504
3;502
4;503
5;503
6;501
7;499
8;499
9;499
10;497
11;488
12;491
13;493
14;490
15;489
0;494
1;498
2;500
3;496
4;494
5;491
6;483
7;481
8;485
9;493
10;504
11;504
12;497
13;495
14;499
15;502
0;503
1;504
2;504
3;500
4;497
5;493
6;489
7;487
8;488
9;487
10;479
11;476
12;478
13;486
14;490
15;490
0;490
1;492
2;499
3;505
4;505
5;506
6;505
7;504
8;503
9;502
10;499
11;498
12;496
13;495
14;492
15;489
0;484
1;482
2;481
3;479
4;478
5;476
6;471
7;464
8;462
9;460
10;455
11;454
12;456
13;458
14;460
15;461
0;465
1;467
2;466
3;467
4;463
5;460
6;452
7;443
8;446
9;454
10;452
11;450
12;447
13;446
14;452
15;459
0;464
1;467
2;472
3;474
4;472
5;471
6;468
7;463
8;463
9;464
10;465
11;465
12;466
13;470
14;473
15;472
0;470
1;468
2;466
3;465
4;462
5;458
6;458
7;459
8;463
9;472
10;478
11;477
12;476
13;479
14;485
15;483
0;481
1;483
2;487
3;489
4;489
5;490
6;490
7;489
8;489
9;488
10;486
11;487
12;486
13;486
14;487
15;490
0;492
1;491
2;491
3;493
4;494
5;495
6;495
7;494
8;489
9;484
10;482
11;483
12;483
13;480
14;481
15;488
0;491
1;489
2;490
3;490
4;484
5;482
6;487
7;492
8;491
9;493
10;498
11;502
12;507
13;511
14;516
15;518
0;518
1;515
2;517
3;517
4;520
5;524
6;523
7;519
8;513
9;505
10;498
11;496
12;497
13;500
14;503
15;501
0;500
1;503
2;505
3;502
4;502
5;509
6;516
7;517
8;521
9;523
10;520
11;519
12;518
13;514
14;509
15;504
0;506
1;508
2;510
3;513
4;512
5;512
6;513
7;513
8;513
9;514
10;516
11;515
12;512
13;508
14;502
15;498
0;498
1;499
2;501
3;501
4;502
5;500
6;498
7;497
8;495
9;497
10;504
11;509
12;508
13;507
14;505
15;504
0;506
1;508
2;507
3;506
4;508
5;507
6;503
7;500
8;500
9;501
10;501
11;500
12;498
13;496
14;495
15;494
0;493
1;494
2;494
3;496
4;502
5;506
6;508
7;509
8;511
9;513
10;513
11;511
12;509
13;507
14;503
15;500
0;499
1;500
2;507
3;511
4;509
5;508
6;506
7;503
8;496
9;487
10;481
11;483
12;491
13;499
14;501
15;499
0;499
1;500
2;500
3;499
4;498
5;495
6;496
7;499
8;496
9;492
10;490
11;492
12;494
13;495
14;499
15;501
0;501
1;498
2;497
3;493
4;490
5;494
6;496
7;496
8;497
9;499
10;499
11;499
12;500
13;500
14;501
15;503
0;501
1;501
2;504
3;505
4;508
5;507
6;509
7;510
8;508
9;505
10;510
11;511
12;516
13;520
14;530
15;542
0;550
1;547
2;545
3;542
4;536
5;529
6;527
7;531
8;531
9;532
10;531
11;529
12;526
13;522
14;517
15;515
0;515
1;513
2;509
3;504
4;502
5;504
6;509
7;516
8;521
9;522
10;523
11;522
12;523
13;526
14;525
15;521
0;522
1;524
2;523
3;522
4;523
5;524
6;522
7;519
8;517
9;516
10;516
11;518
12;519
13;515
14;510
15;504
0;502
1;497
2;489
3;482
4;483
5;485
6;491
7;496
8;498
9;496
10;493
11;493
12;492
13;490
14;487
15;484
0;481
1;482
2;483
3;482
4;483
5;482
6;483
7;489
8;496
9;498
10;501
11;501
12;499
13;497
14;492
15;488
0;483
1;478
2;475
3;479
4;485
5;496
6;502
7;499
8;497
9;497
10;498
11;497
12;495
13;495
14;495
15;493
0;491
1;491
2;489
3;485
4;481
5;477
6;476
7;476
8;476
9;478
10;483
11;484
12;486
13;488
14;491
15;495
0;501
1;501
2;493
3;482
4;470
5;464
6;462
7;464
8;465
9;463
10;460
11;462
12;468
13;472
14;473
15;476
0;476
1;473
2;470
3;469
4;473
5;479
6;478
7;476
8;477
9;475
10;471
11;472
12;475
13;477
14;476
15;474
0;475
1;476
2;475
3;473
4;470
5;468
6;466
7;462
8;461
9;462
10;468
11;478
12;482
13;485
14;487
15;490
0;497
1;511
2;530
3;547
4;562
5;575
6;583
7;594
8;609
9;626
10;646
11;668
12;682
13;694
14;700
15;701
0;691
1;671
2;651
3;632
4;613
5;594
6;579
7;564
8;549
9;535
10;525
11;516
12;506
13;496
14;487
15;481
0;474
1;470
2;464
3;456
4;449
5;447
6;445
7;444
8;442
9;443
10;443
11;444
12;442
13;440
14;438
15;437
0;435
1;439
2;443
3;448
4;451
5;451
6;451
7;451
8;452
9;453
10;452
11;451
12;456
13;463
14;471
15;479
0;484
1;486
2;493
3;496
4;494
5;492
6;496
7;497
8;498
9;500
10;500
11;497
12;494
13;502
14;511
15;513
0;513
1;518
2;518
3;509
4;502
5;504
6;511
7;512
8;513
9;514
10;510
11;509
12;511
13;509
14;507
15;504
0;504
1;508
2;511
3;511
4;509
5;505
6;506
7;509
8;510
9;508
10;507
11;506
12;506
13;505
14;503
15;503
0;507
1;508
2;509
3;511
4;513
5;510
6;504
7;502
8;499
9;493
10;488
11;485
12;481
13;480
14;483
15;486
0;488
1;491
2;494
3;496
4;498
5;497
6;497
7;497
8;495
9;495
10;496
11;496
12;502
13;503
14;503
15;503
0;502
1;501
2;500
3;500
4;501
5;500
6;504
7;505
8;503
9;503
10;506
11;510
12;511
13;508
14;508
15;503
0;497
1;495
2;496
3;499
4;500
5;508
6;516
7;519
8;519
9;517
10;514
11;510
12;507
13;511
14;518
15;522
0;527
1;531
2;530
3;523
4;524
5;527
6;531
7;532
8;536
9;538
10;538
11;536
12;532
13;531
14;529
15;527
0;529
1;528
2;526
3;522
4;518
5;519
6;518
7;519
8;520
9;519
10;521
11;522
12;522
13;521
14;525
15;528
0;528
1;527
2;527
3;529
4;529
5;528
6;527
7;527
8;526
9;527
10;530
11;535
12;538
13;537
14;537
15;534
0;532
1;528
2;524
3;526
4;525
5;524
6;524
7;521
8;519
9;519
10;524
11;524
12;521
13;524
14;529
15;533
0;531
1;530
2;529
3;525
4;519
5;516
6;512
7;511
8;512
9;518
10;524
11;525
12;529
13;535
14;537
15;537
0;539
1;542
2;538
3;534
4;531
5;524
6;519
7;516
8;514
9;517
10;516
11;508
12;500
13;499
14;501
15;504
0;501
1;499
2;504
3;511
4;515
5;518
6;521
7;524
8;523
9;521
10;519
11;516
12;514
13;510
14;505
15;502
0;500
1;495
2;494
3;496
4;499
5;499
6;497
7;497
8;497
9;497
10;494
11;491
12;491
13;489
14;489
15;493
0;495
1;500
2;505
3;513
4;518
5;517
6;516
7;513
8;516
9;516
10;515
11;519
12;522
13;523
14;520
15;521
0;518
1;512
2;507
3;505
4;506
5;508
6;508
7;507
8;506
9;507
10;505
11;500
12;504
13;511
14;515
15;514
0;512
1;511
2;510
3;509
4;508
5;508
6;507
7;510
8;511
9;511
10;512
11;515
12;515
13;515
14;515
15;514
0;514
1;513
2;513
3;513
4;512
5;512
6;513
7;516
8;518
9;517
10;515
11;509
12;504
13;502
14;499
15;504
0;509
1;508
2;500
3;496
4;502
5;507
6;510
7;513
8;515
9;519
10;523
11;527
12;531
13;536
14;536
15;530
0;532
1;535
2;538
3;541
4;539
5;535
6;531
7;530
8;532
9;532
10;531
11;529
12;527
13;526
14;524
15;523
0;523
1;524
2;524
3;523
4;525
5;523
6;520
7;518
8;517
9;515
10;514
11;514
12;513
13;512
14;511
15;511
0;514
1;513
2;510
3;509
4;509
5;506
6;503
7;504
8;505
9;506
10;508
11;507
12;502
13;497
14;497
15;498
0;502
1;507
2;513
3;516
4;515
5;512
6;508
7;503
8;497
9;492
10;486
11;481
12;479
13;479
14;481
15;484
0;485
1;489
2;493
3;488
4;485
5;494
6;505
7;519
8;519
9;518
10;531
11;542
12;543
13;539
14;529
15;524
0;528
1;533
2;532
3;529
4;527
5;522
6;519
7;517
8;516
9;514
10;511
11;507
12;503
13;503
14;503
15;503
0;506
1;507
2;508
3;508
4;507
5;507
6;509
7;510
8;505
9;500
10;499
11;496
12;494
13;493
14;492
15;494
0;499
1;502
2;504
3;503
4;501
5;500
6;499
7;496
8;497
9;504
10;508
11;509
12;507
13;506
14;508
15;509
0;507
1;506
2;504
3;503
4;501
5;502
6;501
7;500
8;498
9;499
10;500
11;501
12;503
13;504
14;506
15;510
0;511
1;509
2;510
3;509
4;509
5;514
6;522
7;535
8;540
9;539
10;538
11;535
12;531
13;528
14;528
15;534
0;543
1;548
2;545
3;544
4;546
5;544
6;545
7;545
8;543
9;540
10;540
11;538
12;533
13;529
14;529
15;526
0;526
1;530
2;531
3;532
4;529
5;526
6;523
7;522
8;519
9;517
10;515
11;513
12;513
13;510
14;509
15;505
0;503
1;503
2;504
3;504
4;502
5;502
6;504
7;504
8;501
9;500
10;497
11;491
12;487
13;485
14;482
15;479
0;477
1;474
2;476
3;483
4;491
5;496
6;503
7;504
8;502
9;502
10;503
11;503
12;499
13;496
14;494
15;492
0;490
1;487
2;482
3;484
4;497
5;508
6;511
7;521
8;538
9;547
10;543
11;534
12;528
13;522
14;515
15;512
0;510
1;512
2;518
3;523
4;529
5;530
6;532
7;527
8;518
9;511
10;505
11;501
12;501
13;500
14;501
15;504
0;504
1;504
2;505
3;504
4;501
5;503
6;508
7;509
8;507
9;505
10;504
11;503
12;504
13;505
14;504
15;502
0;501
1;500
2;497
3;494
4;491
5;488
6;486
7;484
8;484
9;483
10;481
11;479
12;478
13;479
14;478
15;478
0;480
1;482
2;485
3;486
4;489
5;495
6;504
7;516
8;529
9;540
10;552
11;570
12;590
13;614
14;642
15;674
0;708
1;729
2;735
3;729
4;713
5;689
6;666
7;647
8;630
9;619
10;609
11;601
12;596
13;588
14;577
15;563
0;549
1;537
2;526
3;515
4;507
5;498
6;492
7;488
8;487
9;487
10;487
11;486
12;483
13;481
14;479
15;472
0;464
1;459
2;455
3;455
4;458
5;459
6;462
7;466
8;470
9;472
10;478
11;480
12;483
13;482
14;484
15;489
0;493
1;496
2;493
3;484
4;476
5;470
6;471
7;471
8;471
9;473
10;476
11;478
12;480
13;483
14;484
15;483
0;483
1;485
2;487
3;487
4;485
5;487
6;492
7;499
8;500
9;495
10;495
11;495
12;497
13;499
14;496
15;494
0;498
1;503
2;504
3;501
4;497
5;494
6;489
7;489
8;490
9;488
10;489
11;494
12;494
13;494
14;496
15;499
0;504
1;508
2;511
3;512
4;513
5;511
6;509
7;506
8;504
9;504
10;502
11;499
12;496
13;495
14;494
15;494
0;493
1;492
2;495
3;497
4;496
5;495
6;497
7;499
8;500
9;501
10;499
11;497
12;499
13;502
14;504
15;507
0;509
1;507
2;500
3;494
4;490
5;486
6;483
7;479
8;476
9;474
10;468
11;467
12;470
13;472
14;478
15;489
0;493
1;496
2;501
3;503
4;508
5;507
6;505
7;504
8;497
9;489
10;484
11;478
12;471
13;468
14;469
15;471
0;475
1;480
2;489
3;493
4;493
5;490
6;487
7;485
8;486
9;490
10;489
11;486
12;492
13;500
14;504
15;507
0;509
1;509
2;508
3;507
4;505
5;504
6;503
7;499
8;494
9;493
10;493
11;496
12;496
13;498
14;502
15;504
0;503
1;505
2;509
3;508
4;502
5;497
6;491
7;487
8;483
9;481
10;482
11;482
12;483
13;486
14;486
15;488
0;491
1;490
2;489
3;487
4;484
5;482
6;478
7;478
8;479
9;481
10;481
11;485
12;487
13;494
14;500
15;509
0;516
1;517
2;515
3;515
4;515
5;514
6;517
7;519
8;514
9;508
10;507
11;511
12;515
13;515
14;514
15;516
0;519
1;520
2;515
3;508
4;508
5;508
6;507
7;506
8;506
9;505
10;500
11;494
12;491
13;486
14;483
15;483
0;484
1;483
2;482
3;481
4;482
5;484
6;485
7;485
8;484
9;487
10;490
11;489
12;486
13;484
14;482
15;479
0;481
1;483
2;484
3;486
4;491
5;491
6;491
7;489
8;490
9;488
10;490
11;490
12;489
13;488
14;486
15;479
0;473
1;469
2;466
3;466
4;470
5;471
6;469
7;467
8;467
9;474
10;483
11;489
12;489
13;485
14;480
15;476
0;477
1;484
2;493
3;501
4;504
5;505
6;508
7;512
8;518
9;523
10;523
11;517
12;509
13;498
14;493
15;497
0;503
1;504
2;501
3;498
4;506
5;516
6;515
7;512
8;510
9;504
10;500
11;499
12;499
13;500
14;503
15;504
0;504
1;504
2;502
3;502
4;504
5;503
6;500
7;500
8;501
9;499
10;495
11;493
12;492
13;491
14;490
15;491
0;491
1;493
2;495
3;498
4;500
5;498
6;496
7;498
8;502
9;504
10;505
11;505
12;503
13;502
14;504
15;506
0;510
1;509
2;508
3;510
4;513
5;514
6;514
7;513
8;510
9;508
10;509
11;513
12;513
13;509
14;507
15;508
0;507
1;503
2;507
3;509
4;508
5;507
6;513
7;518
8;518
9;518
10;520
11;521
12;522
13;522
14;523
15;524
0;522
1;520
2;521
3;519
4;518
5;517
6;517
7;516
8;509
9;503
10;503
11;506
12;508
13;507
14;507
15;507
0;509
1;510
2;511
3;512
4;513
5;512
6;513
7;513
8;512
9;512
10;512
11;512
12;514
13;515
14;517
15;519
0;519
1;519
2;520
3;521
4;519
5;517
6;516
7;516
8;516
9;518
10;518
11;516
12;517
13;517
14;515
15;513
0;510
1;504
2;500
3;499
4;499
5;496
6;493
7;491
8;489
9;491
10;502
11;514
12;520
13;526
14;527
15;525
0;522
1;514
2;510
3;504
4;510
5;527
6;543
7;550
8;552
9;550
10;545
11;543
12;542
13;542
14;544
15;541
0;532
1;526
2;518
3;514
4;514
5;518
6;523
7;524
8;523
9;519
10;516
11;519
12;525
13;531
14;536
15;538
0;538
1;542
2;545
3;544
4;540
5;538
6;531
7;526
8;525
9;524
10;524
11;524
12;524
13;524
14;528
15;529
0;530
1;531
2;531
3;530
4;530
5;531
6;529
7;526
8;526
9;527
10;528
11;530
12;532
13;533
14;535
15;537
0;537
1;539
2;540
3;540
4;536
5;530
6;525
7;521
8;520
9;520
10;520
11;523
12;521
13;521
14;519
15;516
0;515
1;508
2;504
3;502
4;505
5;504
6;497
7;493
8;499
9;511
10;519
11;523
12;532
13;539
14;540
15;541
0;544
1;543
2;538
3;531
4;526
5;522
6;516
7;512
8;506
9;503
10;498
11;493
12;490
13;488
14;493
15;498
0;501
1;502
2;500
3;497
4;496
5;494
6;491
7;486
8;483
9;481
10;481
11;480
12;477
13;473
14;469
15;468
0;469
1;469
2;472
3;474
4;476
5;478
6;480
7;480
8;477
9;474
10;473
11;470
12;466
13;464
14;467
15;471
0;470
1;470
2;467
3;466
4;466
5;471
6;477
7;481
8;486
9;490
10;489
11;487
12;487
13;484
14;476
15;477
0;483
1;488
2;491
3;490
4;488
5;485
6;484
7;483
8;477
9;469
10;465
11;471
12;479
13;480
14;489
15;497
0;501
1;507
2;507
3;508
4;509
5;507
6;506
7;498
8;487
9;480
10;475
11;472
12;471
13;472
14;473
15;472
0;472
1;472
2;475
3;477
4;475
5;480
6;490
7;502
8;514
9;526
10;538
11;548
12;563
13;584
14;606
15;630
0;656
1;679
2;692
3;692
4;685
5;671
6;650
7;627
8;608
9;594
10;579
11;561
12;546
13;534
14;529
15;524
0;517
1;508
2;501
3;497
4;493
5;484
6;475
7;468
8;465
9;467
10;471
11;470
12;465
13;464
14;466
15;465
0;466
1;470
2;469
3;465
4;464
5;468
6;472
7;475
8;479
9;482
10;483
11;484
12;485
13;486
14;485
15;484
0;487
1;491
2;496
3;500
4;504
5;505
6;506
7;504
8;502
9;503
10;503
11;505
12;508
13;509
14;510
15;507
0;504
1;504
2;503
3;503
4;504
5;502
6;502
7;503
8;500
9;496
10;496
11;497
12;495
13;493
14;498
15;502
0;503
1;502
2;502
3;501
4;499
5;498
6;501
7;504
8;504
9;505
10;507
11;508
12;511
13;511
14;509
15;506
0;501
1;499
2;499
3;504
4;507
5;508
6;509
7;508
8;503
9;499
10;502
11;507
12;510
13;514
14;520
15;524
0;525
1;523
2;524
3;526
4;527
5;526
6;527
7;527
8;525
9;523
10;522
11;520
12;524
13;528
14;531
15;535
0;536
1;535
2;534
3;531
4;527
5;523
6;519
7;520
8;520
9;520
10;521
11;523
12;523
13;524
14;526
15;526
0;525
1;523
2;520
3;518
4;515
5;517
6;519
7;517
8;516
9;512
10;509
11;508
12;510
13;515
14;515
15;515
0;515
1;515
2;518
3;519
4;520
5;522
6;525
7;526
8;530
9;536
10;539
11;542
12;544
13;544
14;542
15;538
0;542
1;545
2;543
3;540
4;536
5;534
6;537
7;539
8;535
9;534
10;539
11;551
12;556
13;551
14;549
15;549
0;549
1;549
2;546
3;542
4;536
5;535
6;539
7;541
8;542
9;541
10;540
11;539
12;539
13;536
14;536
15;540
0;544
1;543
2;539
3;536
4;535
5;534
6;532
7;532
8;530
9;530
10;529
11;531
12;537
13;541
14;542
15;541
0;541
1;543
2;544
3;543
4;538
5;533
6;529
7;527
8;529
9;530
10;530
11;531
12;530
13;534
14;542
15;547
0;547
1;543
2;536
3;531
4;533
5;532
6;531
7;532
8;529
9;529
10;529
11;529
12;527
13;522
14;523
15;528
0;533
1;536
2;536
3;532
4;529
5;528
6;528
7;528
8;530
9;529
10;531
11;534
12;534
13;535
14;538
15;543
0;545
1;545
2;544
3;543
4;543
5;543
6;540
7;535
8;533
9;531
10;530
11;530
12;528
13;527
14;527
15;525
0;521
1;524
2;525
3;527
4;529
5;527
6;525
7;523
8;518
9;514
10;511
11;511
12;514
13;513
14;512
15;512
0;516
1;521
2;525
3;527
4;527
5;527
6;527
7;526
8;524
9;522
10;519
11;517
12;519
13;528
14;537
15;537
0;537
1;538
2;543
3;543
4;540
5;539
6;543
7;544
8;537
9;529
10;524
11;524
12;528
13;534
14;537
15;539
0;539
1;538
2;539
3;543
4;545
5;547
6;547
7;541
8;537
9;535
10;531
11;528
12;527
13;528
14;529
15;530
0;529
1;529
2;530
3;532
4;535
5;535
6;534
7;534
8;534
9;530
10;526
11;521
12;522
13;525
14;525
15;526
0;527
1;530
2;532
3;532
4;531
5;536
6;544
7;546
8;545
9;542
10;539
11;538
12;542
13;542
14;537
15;527
0;518
1;516
2;523
3;531
4;534
5;529
6;522
7;518
8;517
9;515
10;516
11;512
12;508
13;507
14;504
15;506
0;512
1;521
2;526
3;525
4;525
5;529
6;531
7;533
8;532
9;528
10;526
11;527
12;527
13;524
14;524
15;523
0;523
1;524
2;525
3;524
4;523
5;519
6;516
7;511
8;508
9;506
10;505
11;511
12;515
13;516
14;516
15;515
0;514
1;516
2;521
3;525
4;525
5;523
6;523
7;521
8;521
9;524
10;524
11;516
12;506
13;500
14;499
15;499
0;496
1;492
2;491
3;494
4;497
5;497
6;498
7;495
8;491
9;489
10;490
11;487
12;488
13;490
14;484
15;480
0;479
1;480
2;486
3;492
4;496
5;502
6;502
7;509
8;519
9;522
10;523
11;525
12;526
13;522
14;519
15;519
0;519
1;517
2;515
3;514
4;517
5;524
6;529
7;530
8;531
9;536
10;540
11;538
12;535
13;532
14;526
15;520
0;519
1;521
2;519
3;517
4;516
5;519
6;524
7;528
8;532
9;535
10;537
11;540
12;540
13;537
14;538
15;539
0;538
1;537
2;537
3;538
4;540
5;539
6;536
7;535
8;536
9;538
10;537
11;531
12;527
13;527
14;528
15;531
0;529
1;526
2;522
3;515
4;510
5;506
6;505
7;505
8;502
9;497
10;494
11;490
12;485
13;486
14;487
15;486
0;483
1;483
2;487
3;498
4;510
5;520
6;523
7;520
8;519
9;518
10;516
11;513
12;509
13;504
14;502
15;499
0;496
1;494
2;492
3;488
4;486
5;485
6;484
7;483
8;481
9;481
10;482
11;482
12;483
13;480
14;476
15;473
0;471
1;468
2;467
3;466
4;467
5;467
6;467
7;464
8;461
9;457
10;455
11;454
12;456
13;460
14;463
15;468
0;474
1;481
2;484
3;484
4;483
5;482
6;479
7;477
8;476
9;476
10;475
11;476
12;479
13;482
14;479
15;479
0;479
1;479
2;480
3;480
4;479
5;480
6;480
7;479
8;480
9;480
10;481
11;481
12;479
13;478
14;477
15;473
0;469
1;467
2;466
3;463
4;462
5;462
6;461
7;462
8;464
9;465
10;467
11;469
12;471
13;470
14;470
15;473
0;474
1;470
2;468
3;475
4;480
5;482
6;483
7;490
8;499
9;511
10;527
11;543
12;560
13;574
14;590
15;611
0;632
1;655
2;680
3;699
4;708
5;705
6;698
7;684
8;673
9;661
10;641
11;619
12;600
13;584
14;571
15;560
0;551
1;539
2;525
3;517
4;512
5;505
6;496
7;484
8;478
9;468
10;456
11;448
12;449
13;457
14;458
15;454
0;455
1;457
2;455
3;455
4;456
5;455
6;455
7;459
8;461
9;464
10;464
11;469
12;476
13;483
14;485
15;487
0;492
1;496
2;494
3;490
4;491
5;492
6;491
7;490
8;489
9;487
10;486
11;487
12;492
13;499
14;504
15;506
0;510
1;513
2;516
3;516
4;516
5;515
6;513
7;514
8;515
9;513
10;514
11;512
12;507
13;501
14;497
15;494
0;490
1;484
2;479
3;487
4;498
5;505
6;510
7;511
8;510
9;512
10;515
11;516
12;515
13;516
14;513
15;509
0;505
1;500
2;499
3;496
4;493
5;491
6;492
7;492
8;491
9;491
10;495
11;505
12;513
13;518
14;518
15;519
0;523
1;525
2;526
3;523
4;519
5;515
6;513
7;512
8;517
9;519
10;517
11;513
12;511
13;514
14;519
15;521
0;522
1;522
2;519
3;519
4;518
5;515
6;515
7;513
8;518
9;520
10;519
11;515
12;509
13;507
14;506
15;508
0;510
1;512
2;516
3;518
4;519
5;519
6;518
7;523
8;522
9;520
10;517
11;517
12;516
13;515
14;521
15;525
0;523
1;524
2;526
3;526
4;524
5;526
6;529
7;528
8;526
9;524
10;526
11;527
12;528
13;530
14;531
15;531
0;529
1;528
2;529
3;528
4;527
5;526
6;525
7;526
8;528
9;530
10;532
11;531
12;526
13;526
14;527
15;527
0;528
1;524
2;517
3;509
4;503
5;502
6;509
7;522
8;527
9;534
10;541
11;543
12;544
13;544
14;542
15;536
0;531
1;527
2;523
3;519
4;515
5;515
6;516
7;519
8;519
9;520
10;526
11;525
12;521
13;522
14;523
15;521
0;518
1;515
2;515
3;510
4;504
5;502
6;501
7;499
8;497
9;502
10;510
11;512
12;515
13;516
14;515
15;511
0;507
1;507
2;511
3;515
4;519
5;520
6;519
7;515
8;512
9;511
10;510
11;505
12;503
13;502
14;501
15;501
0;503
1;504
2;504
3;505
4;506
5;504
6;502
7;502
8;499
9;498
10;500
11;499
12;503
13;508
14;513
15;517
0;516
1;515
2;517
3;517
4;514
5;509
6;501
7;491
8;480
9;474
10;465
11;460
12;468
13;491
14;509
15;518
0;524
1;524
2;517
3;511
4;506
5;504
6;503
7;504
8;506
9;508
10;510
11;507
12;502
13;500
14;500
15;500
0;500
1;497
2;496
3;493
4;492
5;493
6;491
7;490
8;485
9;476
10;473
11;475
12;477
13;479
14;487
15;489
0;487
1;483
2;478
3;477
4;478
5;478
6;476
7;475
8;476
9;480
10;482
11;483
12;484
13;487
14;489
15;492
0;492
1;489
2;487
3;485
4;483
5;482
6;480
7;481
8;482
9;483
10;478
11;473
12;470
13;463
14;463
15;466
0;468
1;469
2;468
3;467
4;468
5;466
6;463
7;460
8;457
9;453
10;447
11;446
12;451
13;455
14;460
15;462
0;460
1;460
2;461
3;458
4;453
5;448
6;443
7;440
8;446
9;460
10;476
11;491
12;497
13;496
14;497
15;499
0;500
1;495
2;488
3;483
4;479
5;476
6;473
7;471
8;471
9;471
10;472
11;471
12;472
13;472
14;474
15;477
0;478
1;476
2;473
3;470
4;468
5;467
6;463
7;459
8;457
9;455
10;450
11;447
12;446
13;446
14;452
15;459
0;461
1;461
2;464
3;467
4;472
5;475
6;476
7;475
8;474
9;472
10;472
11;473
12;472
13;467
14;466
15;469
0;467
1;468
2;473
3;477
4;478
5;477
6;473
7;467
8;463
9;462
10;462
11;460
12;456
13;452
14;448
15;446
0;445
1;446
2;446
3;448
4;452
5;457
6;459
7;456
8;448
9;437
10;435
11;442
12;449
13;452
14;450
15;443
0;436
1;431
2;429
3;427
4;432
5;438
6;440
7;446
8;448
9;447
10;446
11;446
12;446
13;445
14;447
15;451
0;456
1;461
2;463
3;465
4;467
5;470
6;471
7;472
8;476
9;478
10;481
11;486
12;492
13;496
14;500
15;501
0;502
1;506
2;508
3;512
4;510
5;511
6;512
7;513
8;511
9;511
10;510
11;511
12;511
13;511
14;508
15;507
0;509
1;507
2;504
3;504
4;507
5;505
6;501
7;501
8;508
9;515
10;521
11;522
12;518
13;522
14;529
15;530
0;529
1;527
2;524
3;525
4;523
5;522
6;522
7;522
8;520
9;517
10;514
11;511
12;509
13;510
14;511
15;511
0;511
1;514
2;516
3;518
4;519
5;516
6;513
7;512
8;511
9;510
10;508
11;504
12;502
13;502
14;504
15;506
0;504
1;502
2;502
3;503
4;501
5;497
6;498
7;500
8;501
9;499
10;497
11;497
12;497
13;493
14;490
15;491
0;494
1;489
2;489
3;494
4;492
5;493
6;494
7;496
8;494
9;493
10;493
11;491
12;488
13;486
14;483
15;480
0;476
1;480
2;494
3;508
4;516
5;520
6;524
7;525
8;521
9;519
10;516
11;510
12;503
13;499
14;498
15;496
0;495
1;494
2;491
3;488
4;485
5;481
6;480
7;477
8;475
9;473
10;472
11;472
12;472
13;476
14;480
15;484
0;490
1;499
2;508
3;515
4;528
5;544
6;561
7;578
8;595
9;614
10;635
11;658
12;688
13;714
14;729
15;736
0;733
1;720
2;703
3;687
4;669
5;649
6;632
7;613
8;596
9;579
10;563
11;551
12;544
13;536
14;526
15;515
0;509
1;507
2;506
3;504
4;502
5;499
6;496
7;494
8;494
9;492
10;487
11;483
12;480
13;476
14;478
15;476
0;472
1;474
2;479
3;485
4;492
5;497
6;500
7;502
8;505
9;509
10;513
11;514
12;513
13;510
14;512
15;510
0;509
1;510
2;510
3;512
4;516
5;519
6;524
7;524
8;527
9;531
10;536
11;537
12;535
13;533
14;532
15;530
0;529
1;529
2;529
3;528
4;529
5;530
6;533
7;537
8;537
9;535
10;535
11;533
12;532
13;530
14;535
15;537
0;532
1;528
2;528
3;534
4;534
5;530
6;533
7;539
8;541
9;542
10;546
11;553
12;556
13;553
14;554
15;554
0;554
1;550
2;551
3;562
4;573
5;580
6;582
7;581
8;577
9;575
10;575
11;575
12;575
13;572
14;570
15;572
0;577
1;581
2;579
3;578
4;577
5;575
6;577
7;579
8;578
9;578
10;578
11;579
12;581
13;581
14;579
15;577
0;578
1;579
2;579
3;579
4;577
5;577
6;578
7;574
8;573
9;575
10;575
11;575
12;574
13;574
14;574
15;572
0;572
1;573
2;574
3;575
4;575
5;571
6;564
7;560
8;559
9;559
10;558
11;560
12;567
13;567
14;562
15;555
0;557
1;564
2;575
3;582
4;581
5;577
6;576
7;574
8;574
9;577
10;579
11;579
12;577
13;576
14;577
15;576
0;574
1;572
2;571
3;573
4;575
5;582
6;586
7;585
8;585
9;589
10;598
11;600
12;597
13;592
14;589
15;590
0;590
1;591
2;589
3;587
4;585
5;581
6;579
7;576
8;576
9;575
10;573
11;571
12;569
13;567
14;569
15;570
0;569
1;568
2;567
3;566
4;565
5;563
6;561
7;560
8;560
9;556
10;552
11;550
12;547
13;544
14;545
15;547
0;547
1;548
2;556
3;559
4;562
5;561
6;563
7;563
8;562
9;558
10;556
11;560
12;560
13;560
14;559
15;556
0;550
1;544
2;541
3;540
4;543
5;545
6;547
7;551
8;553
9;553
10;553
11;553
12;555
13;558
14;560
15;562
0;566
1;571
2;573
3;570
4;568
5;566
6;568
7;569
8;565
9;563
10;561
11;554
12;548
13;547
14;548
15;548
0;545
1;542
2;541
3;540
4;536
5;534
6;535
7;538
8;543
9;543
10;537
11;532
12;531
13;533
14;535
15;539
0;540
1;543
2;544
3;545
4;545
5;546
6;548
7;547
8;543
9;538
10;535
11;535
12;534
13;531
14;530
15;531
0;532
1;531
2;530
3;527
4;528
5;529
6;527
7;524
8;521
9;520
10;516
11;510
12;503
13;499
14;496
15;500
0;505
1;507
2;510
3;519
4;525
5;528
6;530
7;530
8;527
9;527
10;530
11;531
12;526
13;524
14;528
15;531
0;528
1;524
2;523
3;523
4;522
5;523
6;524
7;525
8;525
9;524
10;523
11;521
12;521
13;523
14;522
15;523
0;522
1;519
2;519
3;519
4;517
5;514
6;513
7;515
8;515
9;515
10;513
11;508
12;501
13;499
14;494
15;487
0;490
1;502
2;515
3;522
4;527
5;532
6;533
7;532
8;528
9;523
10;520
11;519
12;511
13;497
14;489
15;487
0;492
1;500
2;511
3;519
4;523
5;523
6;523
7;522
8;519
9;518
10;519
11;523
12;525
13;523
14;522
15;521
0;518
1;515
2;513
3;515
4;515
5;515
6;514
7;511
8;511
9;509
10;505
11;502
12;499
13;496
14;498
15;501
0;507
1;512
2;517
3;521
4;521
5;518
6;515
7;514
8;515
9;516
10;519
11;517
12;515
13;515
14;517
15;516
0;516
1;514
2;512
3;511
4;515
5;517
6;519
7;517
8;511
9;509
10;509
11;508
12;507
13;509
14;507
15;503
0;500
1;498
2;499
3;500
4;498
5;497
6;499
7;501
8;500
9;499
10;500
11;500
12;501
13;505
14;508
15;507
0;504
1;504
2;507
3;510
4;513
5;519
6;523
7;533
8;536
9;536
10;537
11;540
12;545
13;547
14;547
15;544
0;540
1;537
2;535
3;529
4;521
5;517
6;524
7;529
8;531
9;539
10;543
11;540
12;535
13;529
14;524
15;521
0;524
1;531
2;537
3;537
4;538
5;543
6;542
7;538
8;540
9;546
10;549
11;547
12;548
13;548
14;545
15;542
0;536
1;531
2;529
3;526
4;520
5;515
6;512
7;512
8;510
9;508
10;506
11;507
12;510
13;510
14;508
15;507
0;507
1;505
2;499
3;499
4;498
5;498
6;498
7;499
8;499
9;495
10;491
11;489
12;487
13;490
14;494
15;494
0;493
1;491
2;491
3;490
4;490
5;485
6;479
7;474
8;466
9;462
10;461
11;460
12;455
13;454
14;457
15;461
0;461
1;460
2;456
3;452
4;449
5;449
6;458
7;472
8;481
9;480
10;475
11;473
12;475
13;479
14;488
15;493
0;491
1;487
2;490
3;492
4;489
5;487
6;486
7;487
8;489
9;490
10;488
11;485
12;485
13;483
14;482
15;479
0;473
1;468
2;467
3;466
4;468
5;471
6;474
7;476
8;478
9;483
10;484
11;482
12;479
13;475
14;477
15;474
0;469
1;470
2;471
3;466
4;461
5;461
6;460
7;459
8;453
9;445
10;443
11;442
12;441
13;441
14;446
15;449
0;452
1;453
2;455
3;458
4;458
5;460
6;462
7;466
8;470
9;472
10;479
11;489
12;492
13;497
14;505
15;516
0;528
1;540
2;551
3;562
4;578
5;596
6;618
7;641
8;668
9;692
10;707
11;716
12;712
13;699
14;685
15;670
0;655
1;641
2;628
3;616
4;599
5;579
6;561
7;543
8;531
9;523
10;514
11;505
12;499
13;493
14;485
15;481
0;478
1;477
2;481
3;487
4;491
5;482
6;465
7;453
8;443
9;437
10;434
11;433
12;429
13;429
14;431
15;431
0;433
1;438
2;444
3;449
4;455
5;457
6;461
7;465
8;470
9;473
10;475
11;475
12;475
13;467
14;459
15;455
0;456
1;460
2;467
3;476
4;487
5;498
6;504
7;507
8;511
9;520
10;529
11;531
12;528
13;523
14;522
15;523
0;521
1;520
2;518
3;514
4;510
5;510
6;511
7;512
8;512
9;503
10;496
11;495
12;497
13;496
14;495
15;492
0;490
1;486
2;484
3;489
4;495
5;496
6;500
7;503
8;505
9;508
10;509
11;510
12;510
13;507
14;505
15;503
0;504
1;505
2;508
3;507
4;508
5;507
6;505
7;504
8;502
9;500
10;498
11;497
12;496
13;496
14;497
15;495
0;491
1;488
2;486
3;489
4;492
5;496
6;500
7;501
8;502
9;502
10;504
11;505
12;503
13;499
14;496
15;493
0;489
1;488
2;491
3;497
4;504
5;513
6;518
7;521
8;527
9;529
10;525
11;521
12;519
13;511
14;505
15;504
0;506
1;507
2;509
3;518
4;527
5;529
6;537
7;545
8;547
9;546
10;545
11;542
12;541
13;537
14;531
15;524
0;520
1;515
2;511
3;509
4;508
5;507
6;504
7;501
8;501
9;501
10;499
11;495
12;494
13;502
14;512
15;522
0;529
1;531
2;529
3;526
4;524
5;521
6;518
7;516
8;513
9;513
10;513
11;513
12;513
13;513
14;512
15;512
0;511
1;509
2;507
3;506
4;504
5;504
6;505
7;507
8;511
9;513
10;513
11;513
12;510
13;511
14;512
15;514
0;516
1;519
2;521
3;518
4;516
5;519
6;524
7;528
8;532
9;535
10;535
11;532
12;531
13;528
14;526
15;525
0;525
1;527
2;525
3;518
4;515
5;513
6;517
7;524
8;528
9;527
10;525
11;526
12;527
13;529
14;531
15;531
0;527
1;519
2;512
3;508
4;504
5;508
6;515
7;515
8;517
9;516
10;515
11;515
12;515
13;514
14;512
15;509
0;506
1;503
2;502
3;496
4;491
5;492
6;494
7;494
8;496
9;499
10;501
11;504
12;504
13;502
14;499
15;497
0;497
1;495
2;491
3;492
4;491
5;491
6;491
7;495
8;501
9;507
10;507
11;503
12;499
13;495
14;491
15;487
0;485
1;483
2;489
3;505
4;519
5;522
6;525
7;530
8;526
9;519
10;518
11;515
12;517
13;521
14;521
15;517
0;513
1;514
2;516
3;516
4;513
5;510
6;510
7;510
8;507
9;504
10;504
11;505
12;505
13;505
14;508
15;510
0;508
1;506
2;502
3;500
4;501
5;499
6;496
7;494
8;491
9;487
10;491
11;496
12;499
13;501
14;500
15;502
0;503
1;502
2;501
3;497
4;499
5;505
6;510
7;507
8;499
9;496
10;494
11;492
12;488
13;487
14;484
15;483
0;482
1;484
2;487
3;492
4;495
5;497
6;499
7;499
8;503
9;506
10;508
11;508
12;503
13;500
14;499
15;497
0;493
1;492
2;492
3;492
4;494
5;497
6;501
7;503
8;499
9;498
10;497
11;496
12;504
13;509
14;509
15;512
0;512
1;507
2;500
3;494
4;489
5;487
6;489
7;490
8;491
9;487
10;486
11;486
12;487
13;486
14;482
15;478
0;473
1;473
2;475
3;476
4;477
5;480
6;478
7;481
8;488
9;490
10;488
11;483
12;483
13;482
14;484
15;488
0;492
1;496
2;498
3;497
4;498
5;499
6;496
7;495
8;496
9;498
10;498
11;502
12;502
13;502
14;503
15;499
0;495
1;497
2;498
3;499
4;498
5;494
6;492
7;489
8;486
9;480
10;479
11;481
12;484
13;485
14;485
15;483
0;484
1;490
2;499
3;505
4;508
5;505
6;499
7;497
8;499
9;501
10;507
11;515
12;520
13;524
14;527
15;529
0;530
1;531
2;528
3;527
4;529
5;529
6;524
7;520
8;515
9;507
10;506
11;514
12;519
13;518
14;517
15;516
0;516
1;515
2;517
3;517
4;517
5;518
6;518
7;517
8;512
9;512
10;512
11;509
12;506
13;506
14;504
15;498
0;491
1;489
2;489
3;488
4;488
5;488
6;486
7;487
8;491
9;496
10;497
11;496
12;493
13;490
14;489
15;486
0;483
1;482
2;481
3;483
4;486
5;488
6;488
7;486
8;484
9;484
10;486
11;488
12;487
13;488
14;489
15;487
0;488
1;488
2;487
3;488
4;490
5;489
6;487
7;487
8;488
9;491
10;492
11;494
12;494
13;493
14;492
15;491
0;492
1;492
2;490
3;490
4;488
5;485
6;480
7;479
8;479
9;477
10;478
11;480
12;483
13;486
14;488
15;489
0;495
1;496
2;497
3;502
4;505
5;508
6;508
7;509
8;511
9;511
10;506
11;504
12;502
13;502
14;503
15;503
0;499
1;496
2;487
3;479
4;480
5;486
6;485
7;481
8;475
9;472
10;468
11;463
12;459
13;457
14;460
15;463
0;463
1;465
2;469
3;476
4;483
5;487
6;501
7;513
8;522
9;535
10;548
11;560
12;575
13;597
14;621
15;645
0;675
1;702
2;719
3;723
4;719
5;712
6;698
7;683
8;666
9;649
10;635
11;621
12;604
13;588
14;577
15;563
0;548
1;536
2;524
3;511
4;501
5;495
6;490
7;483
8;479
9;477
10;475
11;474
12;472
13;469
14;465
15;463
0;462
1;459
2;454
3;451
4;449
5;448
6;446
7;445
8;450
9;453
10;452
11;457
12;465
13;468
14;472
15;480
0;487
1;494
2;503
3;510
4;513
5;515
6;518
7;518
8;516
9;517
10;515
11;516
12;515
13;509
14;504
15;503
0;508
1;514
2;516
3;518
4;517
5;514
6;513
7;514
8;514
9;516
10;515
11;511
12;505
13;500
14;498
15;497
0;496
1;497
2;498
3;498
4;503
5;505
6;505
7;507
8;508
9;506
10;506
11;508
12;511
13;510
14;511
15;513
0;512
1;511
2;510
3;508
4;508
5;504
6;501
7;496
8;493
9;493
10;494
11;497
12;498
13;496
14;495
15;494
0;497
1;498
2;497
3;497
4;501
5;503
6;501
7;503
8;510
9;514
10;513
11;512
12;517
13;518
14;517
15;519
0;517
1;514
2;511
3;510
4;511
5;511
6;510
7;508
8;509
9;512
10;514
11;512
12;513
13;512
14;511
15;512
0;513
1;514
2;514
3;514
4;511
5;509
6;508
7;505
8;506
9;508
10;510
11;508
12;505
13;504
14;505
15;504
0;504
1;505
2;505
3;505
4;504
5;501
6;497
7;495
8;492
9;489
10;486
11;483
12;484
13;486
14;489
15;496
0;500
1;504
2;504
3;502
4;498
5;493
6;494
7;497
8;498
9;500
10;501
11;497
12;494
13;494
14;494
15;493
0;489
1;487
2;498
3;504
4;506
5;508
6;512
7;519
8;526
9;530
10;530
11;527
12;527
13;526
14;522
15;519
0;515
1;515
2;518
3;517
4;518
5;519
6;519
7;520
8;521
9;520
10;520
11;519
12;518
13;514
14;512
15;510
0;507
1;506
2;508
3;512
4;515
5;520
6;520
7;519
8;519
9;520
10;519
11;519
12;517
13;517
14;518
15;515
0;514
1;513
2;520
3;526
4;527
5;526
6;527
7;528
8;524
9;520
10;519
11;519
12;518
13;521
14;525
15;522
0;518
1;514
2;511
3;507
4;504
5;502
6;500
7;499
8;499
9;500
10;501
11;502
12;505
13;505
14;503
15;503
0;506
1;512
2;515
3;517
4;515
5;512
6;509
7;506
8;506
9;503
10;504
11;505
12;505
13;503
14;505
15;507
0;506
1;504
2;502
3;499
4;497
5;501
6;507
7;512
8;512
9;510
10;508
11;508
12;507
13;502
14;503
15;499
0;495
1;496
2;496
3;496
4;496
5;498
6;501
7;503
8;505
9;506
10;505
11;505
12;502
13;499
14;498
15;496
0;496
1;497
2;500
3;501
4;501
5;499
6;495
7;492
8;488
9;485
10;482
11;483
12;482
13;480
14;483
15;486
0;483
1;480
2;482
3;481
4;485
5;497
6;502
7;499
8;499
9;505
10;512
11;515
12;513
13;510
14;508
15;508
0;509
1;507
2;504
3;504
4;503
5;504
6;508
7;509
8;511
9;514
10;517
11;516
12;512
13;510
14;508
15;505
0;502
1;499
2;496
3;496
4;499
5;507
6;514
7;516
8;518
9;519
10;518
11;516
12;516
13;517
14;519
15;517
0;512
1;508
2;506
3;506
4;505
5;504
6;503
7;499
8;500
9;499
10;498
11;497
12;498
13;499
14;502
15;504
0;505
1;502
2;498
3;495
4;488
5;488
6;490
7;492
8;496
9;504
10;505
11;499
12;495
13;495
14;492
15;486
0;486
1;487
2;489
3;497
4;503
5;500
6;497
7;501
8;508
9;517
10;525
11;526
12;525
13;525
14;527
15;527
0;527
1;528
2;530
3;531
4;531
5;529
6;522
7;517
8;515
9;515
10;514
11;513
12;512
13;511
14;510
15;511
0;512
1;514
2;516
3;518
4;520
5;519
6;519
7;522
8;523
9;520
10;519
11;522
12;528
13;530
14;530
15;530
0;529
1;528
2;526
3;524
4;526
5;530
6;536
7;542
8;546
9;547
10;547
11;547
12;544
13;544
14;541
15;537
0;533
1;529
2;530
3;530
4;527
5;527
6;526
7;525
8;523
9;528
10;537
11;542
12;547
13;556
14;558
15;561
0;561
1;564
2;566
3;566
4;563
5;558
6;554
7;551
8;550
9;549
10;547
11;544
12;539
13;536
14;537
15;539
0;539
1;540
2;541
3;541
4;541
5;538
6;531
7;527
8;526
9;526
10;525
11;521
12;518
13;514
14;512
15;511
0;514
1;516
2;514
3;515
4;516
5;516
6;515
7;514
8;511
9;509
10;507
11;505
12;506
13;509
14;513
15;515
0;513
1;507
2;498
3;494
4;492
5;491
6;487
7;480
8;476
9;478
10;481
11;481
12;483
13;487
14;486
15;487
0;487
1;487
2;483
3;478
4;472
5;470
6;464
7;461
8;463
9;462
10;464
11;472
12;481
13;489
14;495
15;498
0;504
1;510
2;513
3;516
4;512
5;509
6;508
7;504
8;502
9;499
10;497
11;494
12;489
13;487
14;491
15;496
0;500
1;502
2;501
3;500
4;495
5;493
6;495
7;497
8;496
9;492
10;489
11;490
12;491
13;487
14;482
15;475
0;473
1;473
2;472
3;471
4;470
5;470
6;467
7;462
8;454
9;447
10;440
11;435
12;435
13;439
14;444
15;451
0;458
1;462
2;463
3;463
4;462
5;464
6;468
7;476
8;489
9;505
10;523
11;542
12;556
13;576
14;596
15;617
0;643
1;675
2;704
3;724
4;730
5;726
6;717
7;706
8;692
9;674
10;655
11;638
12;621
13;602
14;583
15;566
0;557
1;552
2;545
3;538
4;529
5;519
6;512
7;506
8;498
9;489
10;486
11;485
12;480
13;475
14;472
15;471
0;472
1;473
2;475
3;472
4;469
5;467
6;463
7;458
8;452
9;447
10;447
11;451
12;456
13;459
14;467
15;479
0;494
1;502
2;507
3;510
4;514
5;517
6;517
7;515
8;514
9;516
10;519
11;516
12;512
13;508
14;507
15;506
0;503
1;504
2;508
3;510
4;510
5;511
6;512
7;512
8;512
9;512
10;515
11;519
12;518
13;517
14;518
15;518
0;518
1;515
2;514
3;514
4;512
5;509
6;506
7;507
8;506
9;504
10;505
11;508
12;514
13;518
14;521
15;520
0;519
1;515
2;512
3;514
4;518
5;525
6;530
7;528
8;526
9;523
10;516
11;515
12;513
13;515
14;516
15;518
0;519
1;520
2;523
3;522
4;522
5;522
6;521
7;518
8;512
9;508
10;508
11;510
12;513
13;513
14;510
15;509
0;504
1;497
2;492
3;489
4;487
5;486
6;487
7;488
8;489
9;492
10;493
11;493
12;494
13;492
14;492
15;494
0;494
1;488
2;484
3;484
4;484
5;490
6;493
7;491
8;494
9;496
10;498
11;501
12;502
13;504
14;503
15;499
0;496
1;494
2;494
3;493
4;499
5;504
6;504
7;503
8;503
9;501
10;499
11;502
12;510
13;513
14;512
15;506
0;501
1;500
2;500
3;499
4;496
5;496
6;498
7;499
8;497
9;496
10;499
11;502
12;500
13;496
14;495
15;497
0;499
1;500
2;499
3;499
4;495
5;491
6;493
7;496
8;497
9;496
10;499
11;507
12;510
13;512
14;512
15;512
0;509
1;503
2;498
3;497
4;499
5;500
6;501
7;499
8;499
9;502
10;502
11;503
12;507
13;509
14;507
15;499
0;497
1;499
2;503
3;509
4;512
5;513
6;510
7;503
8;500
9;497
10;495
11;494
12;494
13;496
14;500
15;502
0;507
1;511
2;511
3;509
4;507
5;504
6;500
7;497
8;495
9;492
10;491
11;487
12;488
13;496
14;500
15;499
0;498
1;502
2;509
3;513
4;515
5;517
6;517
7;517
8;515
9;513
10;511
11;512
12;513
13;515
14;516
15;514
0;512
1;508
2;504
3;502
4;499
5;498
6;496
7;499
8;507
9;512
10;514
11;515
12;518
13;518
14;517
15;518
0;519
1;514
2;506
3;498
4;492
5;487
6;484
7;482
8;488
9;497
10;502
11;506
12;509
13;510
14;509
15;506
0;506
1;504
2;504
3;507
4;509
5;511
6;513
7;514
8;514
9;516
10;521
11;523
12;523
13;523
14;523
15;523
0;527
1;529
2;532
3;531
4;531
5;530
6;527
7;530
8;533
9;533
10;535
11;537
12;534
13;526
14;520
15;514
0;512
1;515
2;515
3;517
4;521
5;525
6;526
7;526
8;521
9;518
10;517
11;521
12;525
13;527
14;527
15;526
0;521
1;518
2;518
3;523
4;527
5;531
6;532
7;533
8;532
9;531
10;529
11;528
12;533
13;536
14;537
15;536
0;536
1;536
2;534
3;534
4;534
5;526
6;518
7;517
8;512
9;510
10;509
11;508
12;514
13;523
14;528
15;528
0;528
1;528
2;527
3;529
4;529
5;529
6;529
7;528
8;530
9;534
10;536
11;534
12;531
13;529
14;527
15;525
0;521
1;515
2;513
3;516
4;518
5;512
6;508
7;511
8;515
9;518
10;518
11;515
12;514
13;512
14;510
15;508
0;510
1;515
2;515
3;517
4;518
5;515
6;515
7;512
8;513
9;515
10;517
11;519
12;515
13;513
14;514
15;514
0;515
1;515
2;515
3;515
4;512
5;512
6;513
7;512
8;514
9;512
10;506
11;502
12;502
13;503
14;503
15;509
0;513
1;520
2;525
3;530
4;537
5;539
6;534
7;525
8;514
9;511
10;510
11;507
12;505
13;501
14;500
15;501
0;499
1;497
2;497
3;497
4;498
5;499
6;503
7;506
8;509
9;510
10;511
11;512
12;512
13;512
14;512
15;514
0;517
1;518
2;522
3;523
4;525
5;528
6;527
7;525
8;524
9;521
10;518
11;513
12;512
13;508
14;508
15;516
0;524
1;527
2;524
3;520
4;521
5;522
6;519
7;512
8;506
9;504
10;505
11;507
12;507
13;509
14;511
15;509
0;505
1;500
2;498
3;498
4;500
5;502
6;502
7;501
8;501
9;498
10;499
11;500
12;496
13;487
14;479
15;476
0;477
1;475
2;479
3;481
4;481
5;476
6;473
7;475
8;481
9;489
10;495
11;499
12;503
13;503
14;503
15;500
0;496
1;491
2;486
3;487
4;490
5;493
6;494
7;496
8;494
9;491
10;487
11;483
12;481
13;481
14;482
15;484
0;485
1;486
2;487
3;487
4;487
5;487
6;487
7;487
8;483
9;481
10;479
11;476
12;477
13;481
14;480
15;479
0;479
1;481
2;484
3;483
4;481
5;479
6;478
7;477
8;480
9;483
10;483
11;481
12;480
13;484
14;486
15;487
0;486
1;484
2;486
3;484
4;479
5;468
6;458
7;453
8;454
9;455
10;454
11;453
12;454
13;455
14;455
15;455
0;456
1;456
2;452
3;448
4;448
5;452
6;464
7;480
8;493
9;505
10;510
11;513
12;521
13;528
14;534
15;541
0;549
1;561
2;569
3;582
4;600
5;625
6;652
7;681
8;707
9;723
10;732
11;727
12;715
13;700
14;682
15;665
0;650
1;637
2;622
3;604
4;585
5;568
6;552
7;540
8;532
9;523
10;515
11;509
12;503
13;498
14;495
15;490
0;486
1;483
2;477
3;469
4;465
5;461
6;454
7;454
8;455
9;452
10;445
11;443
12;444
13;447
14;454
15;463
0;475
1;484
2;491
3;495
4;497
5;497
6;497
7;499
8;500
9;496
10;493
11;492
12;492
13;492
14;493
15;496
0;497
1;499
2;507
3;511
4;513
5;514
6;515
7;519
8;515
9;509
10;505
11;504
12;505
13;507
14;506
15;505
0;509
1;513
2;510
3;507
4;504
5;504
6;501
7;501
8;503
9;500
10;492
11;484
12;486
13;490
14;492
15;493
0;495
1;495
2;500
3;500
4;499
5;498
6;496
7;496
8;496
9;497
10;499
11;500
12;502
13;506
14;507
15;504
0;500
1;498
2;496
3;497
4;498
5;494
6;489
7;490
8;493
9;499
10;505
11;507
12;507
13;510
14;513
15;513
0;512
1;510
2;508
3;510
4;512
5;520
6;531
7;531
8;524
9;518
10;518
11;520
12;521
13;519
14;516
15;516
0;513
1;513
2;514
3;515
4;519
5;524
6;523
7;523
8;521
9;518
10;516
11;513
12;509
13;509
14;512
15;513
0;512
1;511
2;509
3;511
4;512
5;513
6;514
7;513
8;510
9;512
10;513
11;514
12;512
13;511
14;513
15;513
0;512
1;512
2;508
3;503
4;497
5;491
6;487
7;483
8;483
9;486
10;492
11;493
12;493
13;496
14;501
15;507
0;515
1;522
2;524
3;527
4;531
5;530
6;529
7;526
8;524
9;520
10;518
11;519
12;520
13;518
14;515
15;515
0;513
1;510
2;508
3;510
4;513
5;516
6;516
7;517
8;516
9;513
10;513
11;513
12;512
13;513
14;511
15;507
0;503
1;501
2;503
3;506
4;510
5;513
6;514
7;513
8;513
9;514
10;514
11;513
12;511
13;508
14;504
15;500
0;496
1;495
2;499
3;505
4;508
5;511
6;516
7;518
8;524
9;529
10;534
11;537
12;530
13;527
14;529
15;533
0;532
1;527
2;519
3;513
4;510
5;508
6;508
7;507
8;500
9;496
10;499
11;504
12;512
13;525
14;539
15;545
0;545
1;542
2;535
3;530
4;526
5;522
6;518
7;513
8;513
9;516
10;517
11;519
12;519
13;519
14;519
15;518
0;514
1;514
2;516
3;515
4;512
5;511
6;507
7;502
8;503
9;504
10;504
11;502
12;502
13;503
14;504
15;506
0;505
1;503
2;502
3;502
4;504
5;503
6;499
7;502
8;505
9;509
10;511
11;515
12;516
13;518
14;519
15;519
0;521
1;523
2;524
3;523
4;519
5;518
6;520
7;523
8;522
9;518
10;516
11;513
12;510
13;507
14;505
15;504
0;504
1;502
2;499
3;497
4;497
5;499
6;499
7;500
8;501
9;499
10;498
11;498
12;499
13;503
14;508
15;509
0;510
1;509
2;508
3;510
4;510
5;510
6;511
7;511
8;509
9;504
10;498
11;497
12;497
13;497
14;498
15;498
0;496
1;500
2;505
3;510
4;507
5;507
6;504
7;504
8;504
9;500
10;498
11;500
12;503
13;506
14;512
15;513
0;509
1;506
2;511
3;521
4;527
5;529
6;529
7;529
8;523
9;518
10;509
11;501
12;498
13;502
14;505
15;506
0;507
1;512
2;520
3;521
4;515
5;508
6;506
7;508
8;511
9;513
10;514
11;515
12;513
13;511
14;509
15;507
0;502
1;502
2;504
3;502
4;500
5;501
6;503
7;505
8;509
9;512
10;513
11;511
12;512
13;513
14;510
15;508
0;506
1;508
2;513
3;520
4;519
5;516
6;512
7;509
8;506
9;503
10;497
11;490
12;488
13;487
14;492
15;500
0;502
1;503
2;502
3;502
4;503
5;505
6;510
7;518
8;525
9;531
10;534
11;538
12;541
13;543
14;542
15;541
0;542
1;543
2;543
3;537
4;531
5;525
6;521
7;519
8;517
9;516
10;519
11;523
12;522
13;525
14;529
15;532
0;534
1;532
2;529
3;529
4;527
5;525
6;526
7;527
8;526
9;525
10;526
11;526
12;529
13;532
14;532
15;534
0;534
1;532
2;534
3;539
4;538
5;534
6;531
7;525
8;518
9;515
10;515
11;515
12;515
13;515
14;515
15;515
0;514
1;516
2;518
3;515
4;514
5;512
6;509
7;504
8;500
9;497
10;496
11;498
12;499
13;500
14;504
15;506
0;502
1;499
2;499
3;498
4;499
5;499
6;512
7;524
8;524
9;518
10;511
11;504
12;495
13;490
14;486
15;484
0;483
1;487
2;493
3;496
4;501
5;502
6;500
7;499
8;496
9;492
10;491
11;489
12;489
13;487
14;487
15;487
0;489
1;489
2;489
3;486
4;481
5;479
6;481
7;485
8;487
9;487
10;488
11;489
12;486
13;482
14;481
15;480
0;480
1;480
2;486
3;489
4;489
5;490
6;493
7;497
8;496
9;494
10;494
11;499
12;498
13;494
14;492
15;488
0;485
1;483
2;479
3;480
4;486
5;489
6;489
7;487
8;485
9;486
10;484
11;484
12;482
13;480
14;478
15;473
0;472
1;469
2;468
3;466
4;466
5;466
6;464
7;460
8;456
9;453
10;450
11;447
12;443
13;438
14;434
15;432
0;429
1;428
2;432
3;436
4;443
5;449
6;459
7;467
8;478
9;497
10;519
11;540
12;563
13;589
14;615
15;641
0;671
1;694
2;706
3;707
4;697
5;685
6;669
7;646
8;628
9;616
10;607
11;602
12;592
13;584
14;573
15;558
0;547
1;539
2;531
3;521
4;511
5;501
6;494
7;489
8;484
9;481
10;479
11;473
12;468
13;463
14;457
15;453
0;450
1;448
2;444
3;440
4;439
5;439
6;443
7;447
8;450
9;455
10;459
11;463
12;464
13;467
14;468
15;470
0;471
1;470
2;473
3;478
4;479
5;478
6;477
7;478
8;479
9;480
10;480
11;483
12;488
13;497
14;502
15;505
0;507
1;509
2;513
3;514
4;512
5;505
6;500
7;500
8;499
9;498
10;502
11;509
12;516
13;521
14;517
15;510
0;508
1;513
2;517
3;524
4;528
5;531
6;528
7;523
8;519
9;515
10;515
11;512
12;509
13;509
14;509
15;512
0;514
1;521
2;528
3;526
4;521
5;519
6;521
7;523
8;526
9;530
10;534
11;534
12;531
13;529
14;527
15;523
0;523
1;523
2;524
3;525
4;525
5;525
6;524
7;522
8;523
9;526
10;527
11;528
12;526
13;520
14;519
15;519
0;519
1;515
2;514
3;513
4;511
5;510
6;512
7;515
8;517
9;513
10;509
11;505
12;507
13;509
14;515
15;523
0;527
1;526
2;524
3;524
4;524
5;521
6;519
7;520
8;523
9;526
10;529
11;534
12;539
13;541
14;540
15;537
0;535
1;527
2;521
3;516
4;513
5;515
6;515
7;511
8;508
9;504
10;505
11;509
12;515
13;526
14;532
15;537
0;540
1;539
2;539
3;536
4;530
5;529
6;531
7;528
8;527
9;529
10;531
11;532
12;533
13;532
14;534
15;535
0;534
1;534
2;531
3;529
4;528
5;527
6;527
7;527
8;529
9;531
10;531
11;530
12;529
13;527
14;524
15;519
0;522
1;525
2;524
3;521
4;513
5;508
6;510
7;513
8;513
9;514
10;518
11;525
12;532
13;537
14;541
15;543
0;543
1;541
2;541
3;544
4;548
5;548
6;548
7;549
8;550
9;551
10;547
11;543
12;540
13;539
14;539
15;540
0;542
1;541
2;540
3;538
4;536
5;531
6;531
7;531
8;532
9;530
10;526
11;517
12;514
13;522
14;528
15;531
0;533
1;540
2;549
3;549
4;547
5;542
6;538
7;534
8;532
9;530
10;528
11;525
12;526
13;525
14;526
15;526
0;525
1;522
2;523
3;520
4;515
5;512
6;515
7;515
8;513
9;510
10;515
11;529
12;532
13;530
14;529
15;526
0;525
1;522
2;517
3;514
4;513
5;514
6;513
7;514
8;516
9;515
10;516
11;519
12;524
13;526
14;528
15;531
0;532
1;531
2;531
3;530
4;530
5;523
6;519
7;518
8;517
9;519
10;521
11;520
12;517
13;514
14;516
15;521
0;521
1;524
2;524
3;523
4;521
5;520
6;519
7;521
8;520
9;516
10;515
11;517
12;517
13;518
14;518
15;518
0;519
1;520
2;522
3;520
4;518
5;519
6;519
7;519
8;519
9;518
10;516
11;513
12;514
13;519
14;526
15;528
0;527
1;526
2;526
3;523
4;519
5;515
6;511
7;506
8;501
9;501
10;507
11;508
12;506
13;505
14;502
15;501
0;498
1;497
2;496
3;499
4;499
5;500
6;502
7;509
8;515
9;515
10;515
11;515
12;515
13;513
14;511
15;508
0;506
1;505
2;508
3;508
4;510
5;511
6;511
7;510
8;509
9;513
10;512
11;512
12;512
13;513
14;511
15;511
0;509
1;507
2;506
3;509
4;508
5;508
6;511
7;510
8;511
9;511
10;509
11;507
12;504
13;503
14;500
15;500
0;502
1;503
2;505
3;508
4;511
5;512
6;512
7;512
8;512
9;513
10;514
11;517
12;521
13;523
14;522
15;521
0;521
1;519
2;514
3;511
4;513
5;511
6;506
7;504
8;504
9;504
10;505
11;510
12;515
13;517
14;516
15;511
0;508
1;510
2;514
3;516
4;516
5;517
6;520
7;530
8;540
9;544
10;545
11;547
12;546
13;547
14;550
15;552
0;550
1;548
2;540
3;532
4;530
5;532
6;531
7;531
8;527
9;521
10;514
11;508
12;510
13;513
14;513
15;508
0;504
1;503
2;506
3;510
4;511
5;513
6;514
7;514
8;515
9;513
10;511
11;507
12;504
13;502
14;501
15;500
0;498
1;496
2;493
3;488
4;486
5;483
6;482
7;482
8;479
9;478
10;477
11;478
12;480
13;475
14;468
15;464
0;458
1;459
2;458
3;454
4;451
5;452
6;456
7;467
8;473
9;475
10;478
11;478
12;477
13;478
14;479
15;481
0;481
1;482
2;486
3;486
4;490
5;494
6;494
7;496
8;495
9;488
10;480
11;474
12;473
13;478
14;484
15;488
0;487
1;486
2;485
3;485
4;489
5;493
6;493
7;493
8;491
9;492
10;494
11;495
12;495
13;496
14;495
15;492
0;487
1;481
2;478
3;480
4;487
5;493
6;494
7;494
8;500
9;502
10;500
11;500
12;501
13;501
14;500
15;497
0;491
1;482
2;476
3;468
4;462
5;457
6;452
7;450
8;447
9;444
10;446
11;448
12;451
13;451
14;450
15;449
0;447
1;444
2;450
3;459
4;460
5;460
6;462
7;472
8;489
9;505
10;516
11;529
12;543
13;557
14;572
15;589
0;611
1;637
2;666
3;690
4;710
5;729
6;730
7;725
8;718
9;704
10;686
11;666
12;650
13;635
14;617
15;600
0;586
1;572
2;560
3;547
4;536
5;524
6;513
7;505
8;497
9;487
10;481
11;480
12;483
13;482
14;483
15;483
0;483
1;483
2;481
3;477
4;472
5;465
6;459
7;454
8;451
9;450
10;450
11;449
12;452
13;460
14;467
15;471
0;473
1;475
2;477
3;475
4;472
5;470
6;468
7;476
8;487
9;491
10;491
11;491
12;493
13;496
14;497
15;497
0;494
1;491
2;490
3;489
4;485
5;483
6;486
7;485
8;480
9;483
10;482
11;487
12;491
13;492
14;492
15;495
0;497
1;498
2;502
3;502
4;501
5;500
6;501
7;504
8;505
9;503
10;504
11;504
12;504
13;504
14;509
15;513
0;515
1;517
2;518
3;516
4;515
5;513
6;511
7;508
8;504
9;501
10;502
11;504
12;507
13;505
14;504
15;504
0;505
1;505
2;507
3;509
4;510
5;510
6;510
7;509
8;510
9;506
10;502
11;499
12;498
13;500
14;499
15;497
0;494
1;491
2;487
3;482
4;479
5;479
6;481
7;485
8;489
9;489
10;488
11;483
12;483
13;488
14;490
15;492
0;492
1;489
2;488
3;487
4;489
5;489
6;490
7;495
8;495
9;497
10;505
11;512
12;516
13;518
14;520
15;515
0;506
1;506
2;510
3;509
4;504
5;500
6;499
7;498
8;501
9;505
10;507
11;510
12;512
13;513
14;513
15;515
0;514
1;511
2;512
3;512
4;512
5;511
6;508
7;504
8;502
9;500
10;494
11;494
12;497
13;498
14;499
15;496
0;494
1;493
2;493
3;496
4;498
5;499
6;501
7;503
8;508
9;508
10;509
11;509
12;509
13;511
14;513
15;511
0;508
1;504
2;499
3;495
4;494
5;492
6;491
7;491
8;489
9;486
10;481
11;474
12;469
13;466
14;466
15;471
0;478
1;483
2;492
3;496
4;497
5;499
6;503
7;505
8;508
9;510
10;510
11;506
12;504
13;502
14;500
15;500
0;501
1;503
2;505
3;503
4;497
5;497
6;500
7;506
8;513
9;515
10;512
11;504
12;503
13;504
14;502
15;501
0;501
1;503
2;504
3;502
4;502
5;504
6;509
7;510
8;510
9;511
10;508
11;504
12;499
13;496
14;497
15;503
0;514
1;521
2;523
3;525
4;524
5;524
6;527
7;529
8;529
9;526
10;523
11;519
12;515
13;512
14;510
15;508
0;507
1;506
2;513
3;518
4;519
5;516
6;512
7;510
8;509
9;508
10;507
11;508
12;508
13;511
14;511
15;506
0;504
1;504
2;502
3;499
4;497
5;496
6;496
7;503
8;511
9;514
10;514
11;512
12;511
13;507
14;507
15;507
0;506
1;504
2;505
3;508
4;508
5;508
6;510
7;515
8;520
9;521
10;522
11;523
12;526
13;526
14;526
15;526
0;526
1;524
2;520
3;517
4;515
5;514
6;514
7;515
8;514
9;515
10;517
11;516
12;517
13;518
14;523
15;533
0;543
1;546
2;546
3;543
4;540
5;538
6;535
7;531
8;531
9;532
10;533
11;531
12;527
13;525
14;524
15;524
0;522
1;519
2;515
3;511
4;507
5;502
6;497
7;497
8;499
9;499
10;497
11;491
12;494
13;499
14;502
15;502
0;505
1;506
2;504
3;503
4;505
5;508
6;510
7;509
8;505
9;503
10;504
11;510
12;516
13;518
14;517
15;513
0;512
1;508
2;505
3;507
4;508
5;509
6;508
7;506
8;503
9;501
10;502
11;503
12;503
13;502
14;501
15;499
0;497
1;496
2;496
3;496
4;496
5;497
6;496
7;494
8;494
9;494
10;492
11;492
12;492
13;491
14;489
15;487
0;489
1;492
2;495
3;499
4;501
5;496
6;491
7;484
8;480
9;479
10;477
11;474
12;469
13;469
14;477
15;488
0;497
1;503
2;508
3;511
4;515
5;514
6;511
7;512
8;516
9;523
10;524
11;524
12;525
13;522
14;518
15;518
0;518
1;519
2;513
3;510
4;508
5;504
6;504
7;508
8;509
9;509
10;511
11;509
12;507
13;506
14;507
15;510
0;515
1;523
2;529
3;532
4;534
5;533
6;533
7;530
8;524
9;518
10;517
11;521
12;520
13;514
14;508
15;508
0;510
1;511
2;512
3;511
4;512
5;513
6;513
7;509
8;506
9;505
10;503
11;504
12;504
13;503
14;506
15;508
0;506
1;503
2;504
3;509
4;507
5;500
6;494
7;489
8;491
9;493
10;492
11;491
12;490
13;489
14;487
15;489
0;492
1;493
2;491
3;490
4;489
5;492
6;493
7;493
8;493
9;494
10;492
11;491
12;491
13;493
14;495
15;499
0;503
1;503
2;503
3;503
4;500
5;498
6;499
7;499
8;497
9;493
10;488
11;488
12;494
13;500
14;504
15;508
0;508
1;510
2;510
3;505
4;503
5;505
6;508
7;511
8;512
9;510
10;504
11;500
12;499
13;499
14;498
15;499
0;504
1;506
2;507
3;504
4;503
5;504
6;504
7;501
8;499
9;497
10;494
11;497
12;497
13;499
14;504
15;504
0;502
1;500
2;499
3;497
4;492
5;490
6;489
7;487
8;487
9;488
10;487
11;482
12;474
13;469
14;464
15;462
0;463
1;464
2;466
3;468
4;469
5;469
6;469
7;472
8;475
9;478
10;483
11;490
12;496
13;502
14;508
15;515
0;525
1;536
2;543
3;554
4;572
5;598
6;626
7;652
8;681
9;708
10;727
11;729
12;722
13;712
14;698
15;683
0;666
1;651
2;636
3;620
4;608
5;598
6;586
7;574
8;559
9;545
10;533
11;520
12;509
13;497
14;487
15;483
0;482
1;480
2;480
3;481
4;482
5;482
6;479
7;478
8;477
9;476
10;477
11;479
12;480
13;478
14;477
15;476
0;476
1;476
2;478
3;480
4;482
5;479
6;478
7;480
8;487
9;493
10;499
11;504
12;507
13;507
14;506
15;505
0;506
1;508
2;507
3;505
4;504
5;503
6;504
7;506
8;502
9;500
10;503
11;511
12;515
13;513
14;512
15;511
0;505
1;501
2;500
3;497
4;495
5;494
6;498
7;503
8;506
9;510
10;515
11;520
12;522
13;518
14;514
15;510
0;512
1;514
2;515
3;515
4;518
5;524
6;523
7;523
8;523
9;527
10;529
11;529
12;528
13;527
14;526
15;525
0;526
1;525
2;525
3;524
4;521
5;518
6;518
7;517
8;518
9;519
10;517
11;516
12;515
13;513
14;513
15;514
0;513
1;513
2;515
3;516
4;514
5;514
6;514
7;512
8;512
9;512
10;511
11;511
12;513
13;515
14;515
15;513
0;510
1;509
2;509
3;509
4;509
5;509
6;508
7;509
8;507
9;506
10;504
11;501
12;502
13;508
14;515
15;520
0;520
1;523
2;524
3;523
4;526
5;528
6;531
7;539
8;545
9;545
10;544
11;543
12;542
13;541
14;538
15;533
0;534
1;537
2;537
3;531
4;524
5;518
6;514
7;510
8;507
9;508
10;513
11;514
12;515
13;522
14;524
15;522
0;517
1;517
2;522
3;525
4;525
5;525
6;527
7;528
8;532
9;533
10;529
11;526
12;524
13;522
14;520
15;519
0;518
1;515
2;516
3;516
4;513
5;511
6;508
7;507
8;511
9;508
10;507
11;505
12;503
13;506
14;509
15;512
0;511
1;510
2;512
3;511
4;506
5;500
6;495
7;490
8;489
9;495
10;502
11;502
12;500
13;503
14;506
15;508
0;510
1;514
2;517
3;520
4;522
5;523
6;526
7;528
8;528
9;528
10;530
11;531
12;529
13;528
14;528
15;532
0;534
1;536
2;537
3;537
4;536
5;534
6;530
7;527
8;524
9;519
10;513
11;507
12;504
13;504
14;508
15;510
0;510
1;511
2;510
3;509
4;507
5;504
6;501
7;495
8;494
9;498
10;497
11;494
12;493
13;494
14;496
15;499
0;501
1;503
2;501
3;497
4;495
5;495
6;494
7;492
8;491
9;491
10;489
11;490
12;491
13;490
14;483
15;478
0;477
1;477
2;478
3;480
4;479
5;479
6;480
7;480
8;483
9;484
10;480
11;474
12;471
13;474
14;481
15;487
0;488
1;490
2;487
3;488
4;495
5;497
6;499
7;499
8;499
9;498
10;493
11;492
12;487
13;483
14;480
15;475
0;479
1;493
2;504
3;511
4;518
5;523
6;526
7;527
8;526
9;522
10;519
11;518
12;519
13;519
14;521
15;525
0;525
1;522
2;519
3;516
4;517
5;515
6;516
7;516
8;513
9;512
10;510
11;510
12;510
13;509
14;509
15;510
0;513
1;517
2;516
3;514
4;511
5;510
6;513
7;514
8;519
9;527
10;527
11;520
12;512
13;508
14;504
15;496
0;498
1;505
2;509
3;518
4;524
5;521
6;518
7;516
8;511
9;508
10;506
11;504
12;504
13;502
14;498
15;496
0;495
1;498
2;504
3;508
4;512
5;513
6;512
7;510
8;508
9;508
10;510
11;511
12;511
13;511
14;510
15;510
0;508
1;506
2;504
3;505
4;508
5;513
6;514
7;512
8;513
9;514
10;511
11;508
12;507
13;507
14;508
15;507
0;505
1;504
2;499
3;495
4;497
5;500
6;504
7;508
8;513
9;517
10;517
11;514
12;512
13;508
14;503
15;502
0;501
1;503
2;504
3;509
4;518
5;526
6;530
7;527
8;525
9;522
10;518
11;524
12;531
13;531
14;526
15;520
0;515
1;510
2;506
3;509
4;513
5;511
6;505
7;500
8;495
9;493
10;489
11;489
12;492
13;497
14;500
15;502
0;502
1;504
2;507
3;511
4;513
5;515
6;518
7;519
8;520
9;523
10;526
11;528
12;532
13;537
14;535
15;528
0;525
1;522
2;518
3;518
4;515
5;515
6;515
7;516
8;518
9;517
10;516
11;516
12;517
13;518
14;519
15;518
0;514
1;511
2;510
3;512
4;513
5;514
6;512
7;508
8;504
9;503
10;501
11;500
12;502
13;501
14;499
15;496
0;493
1;488
2;483
3;481
4;479
5;478
6;475
7;475
8;477
9;480
10;483
11;485
12;486
13;487
14;484
15;483
0;480
1;477
2;476
3;478
4;482
5;484
6;485
7;488
8;490
9;494
10;494
11;493
12;496
13;498
14;498
15;497
0;496
1;494
2;492
3;492
4;492
5;489
6;487
7;486
8;485
9;483
10;482
11;483
12;485
13;483
14;483
15;481
0;481
1;480
2;479
3;478
4;482
5;487
6;491
7;496
8;497
9;499
10;502
11;497
12;492
13;485
14;483
15;485
0;482
1;478
2;478
3;482
4;483
5;482
6;478
7;472
8;467
9;464
10;460
11;457
12;454
13;451
14;452
15;453
0;452
1;451
2;452
3;456
4;458
5;459
6;457
7;456
8;460
9;465
10;469
11;474
12;483
13;493
14;503
15;514
0;527
1;539
2;555
3;574
4;597
5;624
6;651
7;672
8;684
9;688
10;681
11;670
12;657
13;642
14;621
15;601
0;583
1;570
2;556
3;540
4;525
5;507
6;493
7;484
8;472
9;458
10;446
11;436
12;430
13;430
14;435
15;445
0;455
1;461
2;459
3;456
4;455
5;451
6;449
7;446
8;438
9;427
10;421
11;422
12;424
13;429
14;435
15;437
0;438
1;440
2;444
3;446
4;448
5;449
6;448
7;446
8;443
9;439
10;434
11;431
12;431
13;433
14;435
15;438
0;442
1;442
2;443
3;446
4;447
5;445
6;443
7;444
8;443
9;442
10;442
11;443
12;444
13;443
14;442
15;442
0;442
1;443
2;446
3;450
4;454
5;455
6;453
7;449
8;447
9;444
10;443
11;444
12;447
13;447
14;451
15;455
0;453
1;452
2;453
3;452
4;451
5;452
6;451
7;448
8;446
9;445
10;445
11;448
12;448
13;448
14;448
15;448
0;445
1;443
2;444
3;445
4;450
5;466
6;479
7;483
8;483
9;476
10;465
11;457
12;451
13;447
14;444
15;449
0;451
1;449
2;447
3;444
4;449
5;456
6;460
7;460
8;463
9;468
10;467
11;467
12;468
13;468
14;469
15;472
0;473
1;472
2;474
3;474
4;476
5;475
6;475
7;473
8;472
9;470
10;471
11;470
12;473
13;476
14;475
15;476
0;481
1;486
2;491
3;496
4;499
5;501
6;499
7;498
8;496
9;496
10;493
11;490
12;492
13;496
14;500
15;507
0;513
1;521
2;525
3;529
4;533
5;537
6;540
7;543
8;545
9;546
10;546
11;540
12;536
13;534
14;537
15;537
0;536
1;533
2;527
3;525
4;531
5;537
6;543
7;548
8;552
9;556
10;554
11;551
12;548
13;545
14;546
15;548
0;549
1;549
2;550
3;551
4;554
5;553
6;551
7;546
8;540
9;537
10;533
11;532
12;532
13;529
14;529
15;531
0;541
1;545
2;547
3;548
4;543
5;536
6;532
7;532
8;533
9;529
10;531
11;538
12;540
13;544
14;549
15;547
0;543
1;540
2;536
3;534
4;530
5;528
6;530
7;531
8;527
9;525
10;523
11;520
12;518
13;514
14;514
15;512
0;511
1;512
2;510
3;512
4;513
5;512
6;512
7;510
8;513
9;522
10;524
11;526
12;524
13;520
14;513
15;507
0;506
1;511
2;514
3;516
4;513
5;511
6;511
7;514
8;518
9;519
10;521
11;520
12;516
13;512
14;509
15;509
0;509
1;509
2;507
3;504
4;503
5;500
6;496
7;494
8;499
9;498
10;499
11;501
12;500
13;495
14;487
15;483
0;482
1;483
2;485
3;490
4;491
5;487
6;485
7;484
8;485
9;485
10;484
11;486
12;488
13;489
14;489
15;487
0;484
1;480
2;474
3;470
4;468
5;472
6;474
7;479
8;484
9;488
10;492
11;496
12;498
13;498
14;498
15;494
0;496
1;499
2;497
3;493
4;491
5;492
6;495
7;496
8;496
9;496
10;500
11;499
12;496
13;493
14;492
15;488
0;486
1;487
2;498
3;508
4;508
5;509
6;510
7;510
8;506
9;503
10;498
11;498
12;497
13;499
14;500
15;498
0;491
1;494
2;499
3;501
4;506
5;506
6;505
7;504
8;506
9;509
10;509
11;508
12;510
13;510
14;512
15;511
0;509
1;509
2;507
3;504
4;503
5;500
6;496
7;492
8;490
9;487
10;486
11;484
12;481
13;481
14;484
15;486
0;487
1;484
2;482
3;482
4;484
5;484
6;485
7;489
8;492
9;495
10;496
11;495
12;495
13;498
14;505
15;506
0;505
1;504
2;504
3;504
4;500
5;499
6;500
7;498
8;496
9;493
10;493
11;494
12;496
13;499
14;501
15;503
0;504
1;502
2;501
3;502
4;506
5;509
6;510
7;510
8;506
9;506
10;511
11;513
12;515
13;517
14;530
15;545
0;551
1;556
2;553
3;554
4;556
5;555
6;555
7;558
8;561
9;561
10;562
11;563
12;560
13;556
14;554
15;554
0;557
1;556
2;555
3;558
4;558
5;557
6;553
7;553
8;555
9;557
10;554
11;554
12;556
13;558
14;559
15;558
0;560
1;562
2;562
3;563
4;564
5;566
6;564
7;559
8;560
9;563
10;562
11;560
12;559
13;559
14;560
15;559
0;560
1;562
2;565
3;570
4;570
5;569
6;568
7;567
8;567
9;565
10;562
11;554
12;546
13;542
14;539
15;535
0;537
1;538
2;537
3;541
4;548
5;547
6;542
7;545
8;551
9;556
10;557
11;553
12;547
13;540
14;534
15;532
0;527
1;523
2;533
3;548
4;556
5;551
6;547
7;541
8;536
9;532
10;531
11;535
12;537
13;537
14;538
15;536
0;531
1;527
2;527
3;525
4;524
5;526
6;524
7;521
8;518
9;518
10;518
11;517
12;515
13;512
14;510
15;508
0;509
1;512
2;510
3;509
4;507
5;505
6;502
7;499
8;495
9;491
10;487
11;481
12;480
13;481
14;482
15;480
0;480
1;488
2;496
3;500
4;502
5;501
6;502
7;503
8;506
9;506
10;502
11;499
12;495
13;490
14;487
15;490
0;493
1;495
2;495
3;495
4;494
5;493
6;491
7;491
8;491
9;490
10;494
11;495
12;494
13;493
14;490
15;487
0;486
1;485
2;482
3;475
4;471
5;465
6;461
7;457
8;449
9;445
10;443
11;440
12;438
13;433
14;428
15;425
0;423
1;423
2;425
3;428
4;428
5;430
6;436
7;441
8;444
9;451
10;463
11;473
12;480
13;488
14;498
15;512
0;532
1;552
2;574
3;606
4;633
5;651
6;659
7;661
8;657
9;645
10;632
11;619
12;606
13;588
14;568
15;546
0;526
1;510
2;496
3;490
4;487
5;483
6;480
7;477
8;470
9;460
10;450
11;444
12;440
13;441
14;444
15;443
0;442
1;438
2;435
3;433
4;430
5;426
6;423
7;422
8;420
9;421
10;422
11;424
12;426
13;424
14;425
15;429
0;431
1;433
2;434
3;436
4;440
5;444
6;448
7;449
8;449
9;451
10;453
11;453
12;452
13;453
14;459
15;463
0;464
1;464
2;463
3;462
4;460
5;456
6;453
7;451
8;449
9;444
10;440
11;440
12;444
13;443
14;444
15;451
0;456
1;460
2;464
3;467
4;471
5;474
6;480
7;483
8;481
9;480
10;480
11;480
12;483
13;489
14;495
15;496
0;492
1;488
2;486
3;486
4;484
5;483
6;484
7;485
8;485
9;486
10;487
11;487
12;489
13;491
14;490
15;488
0;488
1;486
2;484
3;485
4;487
5;488
6;489
7;492
8;496
9;497
10;491
11;485
12;485
13;488
14;492
15;498
0;501
1;499
2;498
3;496
4;494
5;492
6;489
7;488
8;490
9;490
10;491
11;493
12;496
13;493
14;492
15;497
0;502
1;511
2;513
3;512
4;511
5;510
6;509
7;508
8;506
9;505
10;507
11;508
12;507
13;511
14;515
15;517
0;516
1;516
2;512
3;508
4;507
5;511
6;513
7;517
8;522
9;526
10;530
11;533
12;532
13;529
14;529
15;531
0;529
1;529
2;532
3;533
4;531
5;528
6;524
7;520
8;517
9;514
10;513
11;513
12;513
13;512
14;516
15;527
0;535
1;536
2;537
3;545
4;549
5;550
6;549
7;549
8;547
9;542
10;542
11;544
12;544
13;547
14;550
15;551
0;549
1;545
2;543
3;540
4;542
5;542
6;542
7;540
8;538
9;537
10;538
11;537
12;540
13;544
14;545
15;543
0;542
1;542
2;544
3;544
4;543
5;544
6;544
7;539
8;542
9;548
10;547
11;541
12;537
13;537
14;538
15;542
0;545
1;545
2;544
3;540
4;537
5;536
6;537
7;539
8;537
9;535
10;535
11;533
12;530
13;528
14;531
15;531
0;529
1;530
2;532
3;533
4;528
5;525
6;523
7;521
8;522
9;522
10;524
11;524
12;524
13;523
14;523
15;521
0;519
1;524
2;526
3;525
4;526
5;527
6;526
7;523
8;521
9;520
10;519
11;519
12;518
13;517
14;520
15;523
0;522
1;520
2;520
3;520
4;519
5;517
6;515
7;513
8;508
9;504
10;498
11;493
12;495
13;497
14;502
15;507
0;508
1;507
2;505
3;504
4;504
5;502
6;503
7;507
8;511
9;510
10;510
11;510
12;506
13;504
14;502
15;505
0;515
1;521
2;525
3;529
4;529
5;527
6;524
7;519
8;517
9;518
10;520
11;523
12;524
13;524
14;525
15;524
0;520
1;517
2;519
3;517
4;517
5;519
6;521
7;520
8;519
9;523
10;528
11;535
12;534
13;529
14;527
15;526
0;527
1;527
2;526
3;527
4;528
5;529
6;529
7;528
8;527
9;525
10;524
11;521
12;519
13;518
14;516
15;516
0;516
1;514
2;513
3;512
4;512
5;507
6;507
7;508
8;504
9;503
10;506
11;506
12;507
13;506
14;508
15;508
0;511
1;511
2;513
3;521
4;527
5;531
6;535
7;536
8;537
9;537
10;535
11;528
12;523
13;521
14;518
15;516
0;518
1;519
2;525
3;535
4;544
5;549
6;549
7;549
8;548
9;551
10;559
11;563
12;566
13;565
14;563
15;566
0;571
1;571
2;568
3;567
4;568
5;564
6;560
7;557
8;554
9;553
10;555
11;557
12;556
13;558
14;559
15;561
0;560
1;556
2;553
3;552
4;549
5;549
6;550
7;551
8;552
9;552
10;552
11;551
12;553
13;553
14;552
15;553
0;552
1;551
2;551
3;547
4;548
5;548
6;552
7;553
8;551
9;550
10;548
11;548
12;546
13;540
14;536
15;532
0;528
1;527
2;534
3;546
4;555
5;562
6;567
7;567
8;566
9;567
10;569
11;571
12;572
13;572
14;572
15;572
0;570
1;569
2;567
3;562
4;560
5;558
6;556
7;556
8;555
9;555
10;556
11;559
12;562
13;562
14;564
15;565
0;566
1;568
2;568
3;569
4;568
5;570
6;571
7;572
8;572
9;571
10;570
11;568
12;566
13;564
14;563
15;560
0;557
1;553
2;558
3;559
4;556
5;555
6;555
7;558
8;557
9;553
10;555
11;559
12;563
13;571
14;579
15;574
0;569
1;564
2;557
3;552
4;553
5;553
6;550
7;545
8;536
9;527
10;524
11;529
12;532
13;533
14;538
15;542
0;543
1;542
2;539
3;535
4;531
5;531
6;529
7;531
8;534
9;535
10;536
11;536
12;535
13;534
14;532
15;529
0;526
1;524
2;525
3;524
4;526
5;526
6;526
7;527
8;527
9;526
10;526
11;526
12;527
13;527
14;524
15;521
0;520
1;518
2;514
3;514
4;512
5;507
6;506
7;507
8;507
9;507
10;507
11;507
12;506
13;506
14;510
15;511
0;512
1;514
2;513
3;509
4;508
5;510
6;512
7;515
8;515
9;513
10;513
11;512
12;511
13;510
14;509
15;507
0;505
1;505
2;504
3;499
4;493
5;487
6;482
7;488
8;493
9;498
10;501
11;501
12;493
13;487
14;479
15;474
0;473
1;470
2;472
3;476
4;483
5;491
6;494
7;495
8;497
9;501
10;505
11;511
12;519
13;531
14;539
15;551
0;568
1;583
2;602
3;623
4;641
5;662
6;686
7;705
8;716
9;715
10;707
11;696
12;680
13;662
14;644
15;626
0;611
1;597
2;585
3;573
4;560
5;550
6;544
7;535
8;525
9;514
10;504
11;497
12;491
13;490
14;488
15;486
0;482
1;478
2;472
3;466
4;463
5;463
6;465
7;472
8;476
9;473
10;469
11;465
12;465
13;470
14;475
15;478
0;480
1;483
2;485
3;487
4;490
5;493
6;495
7;496
8;496
9;497
10;503
11;502
12;496
13;494
14;493
15;491
0;491
1;492
2;493
3;494
4;495
5;495
6;495
7;499
8;499
9;497
10;493
11;491
12;489
13;486
14;480
15;479
0;481
1;480
2;479
3;480
4;481
5;482
6;487
7;494
8;498
9;500
10;500
11;498
12;492
13;489
14;490
15;489
0;487
1;484
2;481
3;479
4;476
5;476
6;479
7;480
8;479
9;478
10;476
11;476
12;477
13;475
14;472
15;473
0;478
1;485
2;487
3;488
4;487
5;482
6;478
7;474
8;471
9;469
10;473
11;476
12;476
13;477
14;479
15;479
0;475
1;467
2;463
3;463
4;465
5;467
6;466
7;462
8;464
9;465
10;465
11;466
12;472
13;479
14;481
15;479
0;473
1;466
2;462
3;462
4;459
5;457
6;458
7;459
8;461
9;464
10;462
11;460
12;458
13;456
14;452
15;449
0;444
1;438
