0;541
1;545
2;549
3;549
4;548
5;548
6;548
7;546
8;544
9;539
10;534
11;531
12;529
13;531
14;536
15;544
0;549
1;553
2;556
3;559
4;560
5;561
6;560
7;554
8;548
9;542
10;538
11;532
12;528
13;527
14;522
15;522
0;524
1;530
2;539
3;546
4;545
5;545
6;548
7;544
8;536
9;528
10;519
11;512
12;511
13;514
14;512
15;508
0;503
1;498
2;485
3;475
4;474
5;483
6;485
7;482
8;482
9;475
10;471
11;473
12;473
13;471
14;471
15;472
0;473
1;482
2;491
3;499
4;510
5;506
6;492
7;488
8;483
9;476
10;469
11;467
12;467
13;465
14;463
15;464
0;468
1;472
2;477
3;479
4;480
5;481
6;483
7;484
8;484
9;481
10;477
11;473
12;468
13;463
14;460
15;463
0;465
1;467
2;475
3;485
4;489
5;487
6;487
7;487
8;487
9;486
10;483
11;480
12;478
13;479
14;479
15;480
0;480
1;480
2;486
3;491
4;495
5;498
6;501
7;505
8;505
9;505
10;507
11;500
12;489
13;482
14;476
15;467
0;462
1;462
2;464
3;470
4;481
5;492
6;502
7;507
8;505
9;502
10;498
11;494
12;487
13;485
14;485
15;481
0;483
1;487
2;480
3;476
4;476
5;476
6;477
7;485
8;493
9;494
10;495
11;493
12;491
13;489
14;486
15;484
0;481
1;479
2;480
3;483
4;490
5;497
6;504
7;508
8;513
9;519
10;519
11;518
12;512
13;505
14;500
15;497
0;494
1;487
2;482
3;480
4;478
5;483
6;491
7;498
8;508
9;516
10;519
11;521
12;523
13;523
14;521
15;518
0;512
1;508
2;506
3;501
4;493
5;489
6;495
7;501
8;504
9;516
10;524
11;527
12;526
13;522
14;521
15;521
0;518
1;511
2;502
3;495
4;494
5;493
6;497
7;499
8;499
9;501
10;506
11;512
12;513
13;512
14;511
15;512
0;508
1;502
2;497
3;494
4;496
5;499
6;502
7;505
8;515
9;519
10;520
11;524
12;527
13;527
14;527
15;526
0;520
1;516
2;512
3;508
4;504
5;504
6;504
7;506
8;510
9;515
10;519
11;524
12;531
13;533
14;534
15;533
0;527
1;523
2;518
3;513
4;506
5;500
6;504
7;508
8;508
9;510
10;512
11;521
12;527
13;528
14;518
15;514
0;515
1;515
2;513
3;505
4;497
5;495
6;494
7;493
8;497
9;501
10;506
11;511
12;514
13;520
14;524
15;524
0;520
1;514
2;511
3;505
4;500
5;496
6;494
7;497
8;502
9;509
10;513
11;518
12;521
13;525
14;528
15;531
0;532
1;530
2;526
3;522
4;520
5;517
6;515
7;514
8;514
9;513
10;514
11;518
12;524
13;529
14;535
15;540
0;541
1;539
2;536
3;531
4;524
5;519
6;518
7;522
8;523
9;520
10;515
11;514
12;515
13;518
14;524
15;531
0;533
1;531
2;530
3;523
4;511
5;502
6;498
7;498
8;503
9;505
10;508
11;510
12;516
13;522
14;529
15;538
0;545
1;548
2;551
3;555
4;557
5;551
6;544
7;536
8;530
9;526
10;527
11;526
12;525
13;530
14;535
15;539
0;543
1;545
2;547
3;547
4;546
5;541
6;534
7;529
8;524
9;521
10;519
11;520
12;521
13;520
14;523
15;527
0;533
1;542
2;548
3;549
4;543
5;531
6;519
7;511
8;505
9;500
10;496
11;494
12;495
13;496
14;499
15;505
0;507
1;507
2;516
3;519
4;518
5;522
6;523
7;515
8;512
9;512
10;512
11;510
12;507
13;502
14;497
15;498
0;503
1;510
2;518
3;526
4;528
5;526
6;521
7;515
8;511
9;508
10;505
11;509
12;515
13;519
14;523
15;529
0;535
1;533
2;529
3;526
4;519
5;509
6;501
7;497
8;491
9;483
10;473
11;462
12;458
13;460
14;464
15;476
0;498
1;516
2;528
3;537
4;534
5;534
6;531
7;530
8;525
9;518
10;513
11;511
12;509
13;507
14;508
15;509
0;511
1;515
2;517
3;519
4;526
5;532
6;534
7;535
8;536
9;539
10;541
11;540
12;538
13;535
14;535
15;538
0;542
1;551
2;566
3;585
4;606
5;624
6;646
7;670
8;689
9;701
10;705
11;708
12;709
13;711
14;711
15;710
0;704
1;701
2;697
3;698
4;702
5;706
6;703
7;693
8;682
9;657
10;621
11;579
12;531
13;477
14;427
15;394
0;371
1;350
2;339
3;342
4;348
5;357
6;371
7;385
8;394
9;403
10;397
11;391
12;389
13;394
14;404
15;408
0;409
1;414
2;420
3;426
4;432
5;438
6;449
7;463
8;471
9;473
10;480
11;489
12;494
13;495
14;491
15;484
0;482
1;487
2;493
3;495
4;494
5;491
6;490
7;493
8;499
9;505
10;510
11;515
12;518
13;518
14;521
15;527
0;527
1;525
2;525
3;524
4;519
5;517
6;518
7;519
8;518
9;521
10;521
11;520
12;519
13;519
14;515
15;510
0;504
1;500
2;496
3;495
4;494
5;497
6;505
7;513
8;519
9;524
10;531
11;533
12;529
13;525
14;521
15;521
0;525
1;527
2;528
3;526
4;525
5;526
6;527
7;532
8;537
9;543
10;548
11;549
12;553
13;554
14;554
15;550
0;544
1;537
2;529
3;523
4;522
5;524
6;526
7;529
8;531
9;532
10;537
11;547
12;553
13;556
14;556
15;555
0;552
1;548
2;544
3;539
4;536
5;540
6;543
7;549
8;558
9;565
10;568
11;570
12;572
13;572
14;571
15;569
0;561
1;555
2;549
3;542
4;535
5;534
6;539
7;539
8;537
9;545
10;549
11;553
12;557
13;556
14;548
15;538
0;533
1;533
2;533
3;532
4;529
5;527
6;528
7;528
8;531
9;536
10;542
11;548
12;555
13;562
14;565
15;565
0;567
1;566
2;562
3;558
4;552
5;546
6;546
7;550
8;554
9;558
10;566
11;572
12;576
13;579
14;578
15;577
0;578
1;584
2;584
3;575
4;567
5;559
6;551
7;551
8;548
9;548
10;555
11;560
12;564
13;568
14;571
15;569
0;563
1;556
2;553
3;547
4;542
5;540
6;536
7;533
8;531
9;528
10;528
11;532
12;537
13;542
14;547
15;551
0;551
1;547
2;542
3;537
4;532
5;526
6;520
7;515
8;512
9;510
10;507
11;505
12;509
13;511
14;510
15;512
0;515
1;516
2;515
3;514
4;510
5;500
6;493
7;486
8;481
9;483
10;489
11;494
12;492
13;489
14;490
15;486
0;486
1;490
2;492
3;491
4;487
5;480
6;476
7;473
8;466
9;464
10;470
11;472
12;470
13;469
14;468
15;471
0;477
1;485
2;487
3;481
4;479
5;478
6;473
7;472
8;470
9;466
10;461
11;463
12;463
13;459
14;458
15;460
0;462
1;468
2;474
3;477
4;480
5;484
6;483
7;479
8;475
9;470
10;466
11;463
12;465
13;468
14;471
15;481
0;488
1;489
2;491
3;494
4;496
5;493
6;486
7;480
8;476
9;479
10;476
11;476
12;476
13;474
14;470
15;471
0;479
1;491
2;497
3;505
4;514
5;516
6;509
7;499
8;485
9;461
10;445
11;438
12;432
13;428
14;425
15;427
0;433
1;441
2;453
3;464
4;472
5;473
6;474
7;474
8;470
9;464
10;463
11;461
12;460
13;462
14;466
15;469
0;473
1;480
2;487
3;488
4;487
5;485
6;483
7;482
8;478
9;473
10;469
11;466
12;463
13;463
14;462
15;466
0;467
1;469
2;474
3;477
4;480
5;487
6;495
7;500
8;498
9;495
10;489
11;480
12;475
13;471
14;471
15;474
0;473
1;476
2;482
3;492
4;500
5;503
6;508
7;514
8;515
9;515
10;514
11;510
12;504
13;500
14;494
15;493
0;497
1;497
2;496
3;496
4;494
5;498
6;503
7;506
8;506
9;505
10;502
11;496
12;490
13;490
14;490
15;489
0;491
1;495
2;499
3;504
4;499
5;492
6;488
7;492
8;495
9;496
10;499
11;501
12;497
13;490
14;485
15;482
0;482
1;481
2;480
3;479
4;481
5;487
6;492
7;496
8;500
9;504
10;506
11;510
12;508
13;502
14;495
15;491
0;489
1;486
2;486
3;488
4;496
5;504
6;509
7;515
8;523
9;528
10;528
11;524
12;515
13;505
14;487
15;477
0;472
1;467
2;471
3;473
4;479
5;487
6;499
7;508
8;513
9;512
10;508
11;506
12;507
13;507
14;506
15;503
0;502
1;507
2;507
3;503
4;501
5;502
6;508
7;508
8;506
9;503
10;501
11;506
12;509
13;513
14;514
15;510
0;508
1;508
2;511
3;519
4;524
5;519
6;516
7;517
8;522
9;525
10;529
11;532
12;533
13;536
14;542
15;540
0;537
1;536
2;523
3;501
4;484
5;475
6;481
7;489
8;495
9;502
10;503
11;504
12;508
13;505
14;498
15;494
0;492
1;492
2;492
3;488
4;485
5;484
6;481
7;480
8;479
9;485
10;491
11;500
12;507
13;505
14;502
15;503
0;503
1;497
2;495
3;492
4;487
5;482
6;481
7;482
8;484
9;489
10;495
11;498
12;503
13;506
14;505
15;504
0;505
1;506
2;506
3;500
4;497
5;500
6;499
7;497
8;502
9;512
10;519
11;521
12;522
13;527
14;528
15;524
0;518
1;510
2;500
3;489
4;485
5;483
6;478
7;480
8;480
9;481
10;489
11;495
12;500
13;502
14;505
15;504
0;497
1;493
2;489
3;488
4;487
5;483
6;481
7;481
8;483
9;486
10;487
11;492
12;498
13;503
14;508
15;511
0;511
1;510
2;509
3;504
4;498
5;497
6;498
7;498
8;501
9;509
10;519
11;529
12;542
13;556
14;568
15;579
0;589
1;604
2;613
3;615
4;619
5;624
6;631
7;641
8;649
9;661
10;664
11;667
12;666
13;665
14;666
15;671
0;674
1;676
2;666
3;654
4;638
5;620
6;598
7;576
8;548
9;520
10;493
11;464
12;431
13;409
14;392
15;379
0;371
1;366
2;361
3;362
4;361
5;359
6;358
7;365
8;369
9;374
10;380
11;387
12;394
13;407
14;418
15;431
0;443
1;454
2;462
3;466
4;470
5;475
6;475
7;471
8;468
9;468
10;472
11;476
12;480
13;484
14;488
15;494
0;500
1;506
2;512
3;515
4;514
5;511
6;508
7;501
8;492
9;486
10;483
11;484
12;492
13;494
14;500
15;512
0;521
1;526
2;531
3;538
4;538
5;540
6;536
7;534
8;524
9;515
10;508
11;502
12;498
13;503
14;508
15;507
0;509
1;512
2;508
3;499
4;492
5;490
6;495
7;495
8;495
9;497
10;500
11;504
12;507
13;510
14;503
15;498
0;503
1;510
2;516
3;525
4;532
5;535
6;533
7;531
8;526
9;524
10;521
11;515
12;505
13;496
14;496
15;502
0;510
1;520
2;528
3;534
4;537
5;542
6;548
7;550
8;546
9;543
10;541
11;539
12;535
13;531
14;528
15;525
0;525
1;528
2;533
3;539
4;546
5;553
6;557
7;558
8;560
9;557
10;550
11;542
12;538
13;534
14;533
15;534
0;535
1;535
2;541
3;549
4;552
5;554
6;555
7;552
8;546
9;544
10;542
11;538
12;539
13;541
14;541
15;540
0;540
1;540
2;539
3;540
4;544
5;547
6;555
7;560
8;564
9;566
10;566
11;567
12;563
13;560
14;555
15;551
0;550
1;545
2;543
3;550
4;555
5;559
6;565
7;570
8;572
9;572
10;573
11;573
12;568
13;563
14;564
15;562
0;558
1;556
2;555
3;555
4;559
5;563
6;568
7;570
8;572
9;574
10;572
11;571
12;572
13;568
14;566
15;561
0;547
1;537
2;534
3;524
4;516
5;514
6;522
7;534
8;548
9;556
10;556
11;546
12;535
13;527
14;521
15;519
0;514
1;510
2;509
3;510
4;508
5;512
6;515
7;515
8;518
9;523
10;520
11;519
12;523
13;525
14;523
15;517
0;511
1;506
2;499
3;496
4;497
5;493
6;488
7;487
8;487
9;489
10;491
11;495
12;498
13;500
14;498
15;495
0;492
1;489
2;487
3;485
4;484
5;483
6;481
7;483
8;489
9;495
10;502
11;504
12;505
13;505
14;502
15;495
0;485
1;476
2;466
3;457
4;452
5;454
6;458
7;463
8;475
9;484
10;492
11;498
12;498
13;500
14;504
15;505
0;500
1;494
2;492
3;486
4;473
5;466
6;467
7;472
8;473
9;473
10;476
11;481
12;485
13;489
14;492
15;496
0;493
1;486
2;480
3;474
4;471
5;469
6;469
7;469
8;470
9;474
10;479
11;482
12;488
13;492
14;496
15;500
0;502
1;499
2;493
3;492
4;489
5;491
6;490
7;492
8;494
9;498
10;504
11;507
12;506
13;505
14;506
15;506
0;505
1;505
2;503
3;495
4;491
5;487
6;483
7;481
8;480
9;483
10;485
11;488
12;496
13;501
14;503
15;509
0;511
1;510
2;501
3;490
4;482
5;482
6;479
7;479
8;473
9;467
10;466
11;476
12;485
13;485
14;487
15;493
0;498
1;500
2;501
3;501
4;497
5;493
6;490
7;491
8;493
9;492
10;493
11;497
12;504
13;508
14;507
15;506
0;508
1;511
2;513
3;514
4;509
5;504
6;499
7;492
8;487
9;488
10;492
11;497
12;499
13;503
14;510
15;516
0;524
1;528
2;527
3;526
4;526
5;524
6;520
7;511
8;506
9;503
10;500
11;497
12;495
13;498
14;502
15;507
0;515
1;521
2;526
3;527
4;531
5;532
6;527
7;518
8;511
9;502
10;492
11;488
12;485
13;485
14;491
15;499
0;506
1;517
2;524
3;522
4;526
5;526
6;521
7;513
8;504
9;497
10;492
11;491
12;492
13;493
14;495
15;499
0;503
1;509
2;515
3;520
4;523
5;525
6;527
7;523
8;518
9;514
10;507
11;503
12;506
13;509
14;508
15;511
0;516
1;520
2;524
3;526
4;529
5;531
6;532
7;530
8;520
9;513
10;508
11;502
12;500
13;496
14;496
15;502
0;508
1;512
2;511
3;513
4;519
5;521
6;520
7;519
8;519
9;519
10;519
11;515
12;508
13;502
14;494
15;487
0;489
1;496
2;505
3;515
4;521
5;525
6;528
7;531
8;529
9;522
10;511
11;499
12;492
13;491
14;494
15;497
0;502
1;510
2;514
3;519
4;524
5;519
6;509
7;502
8;501
9;501
10;499
11;497
12;491
13;488
14;486
15;483
0;477
1;473
2;476
3;479
4;482
5;491
6;499
7;504
8;506
9;501
10;492
11;487
12;486
13;484
14;483
15;482
0;482
1;486
2;489
3;494
4;500
5;503
6;505
7;509
8;512
9;514
10;515
11;514
12;508
13;507
14;502
15;497
0;495
1;494
2;497
3;498
4;500
5;504
6;511
7;517
8;523
9;525
10;526
11;523
12;518
13;511
14;506
15;501
0;497
1;504
2;510
3;511
4;518
5;527
6;536
7;545
8;554
9;562
10;567
11;575
12;581
13;589
14;597
15;608
0;620
1;633
2;644
3;645
4;639
5;635
6;636
7;634
8;635
9;635
10;633
11;629
12;617
13;605
14;592
15;575
0;560
1;547
2;534
3;517
4;497
5;477
6;456
7;438
8;424
9;411
10;398
11;389
12;386
13;387
14;386
15;384
0;384
1;387
2;389
3;395
4;400
5;409
6;422
7;433
8;442
9;456
10;467
11;470
12;468
13;473
14;473
15;467
0;466
1;469
2;469
3;471
4;476
5;480
6;489
7;503
8;512
9;511
10;512
11;514
12;512
13;509
14;504
15;499
0;500
1;502
2;502
3;505
4;510
5;508
6;502
7;493
8;488
9;491
10;497
11;507
12;514
13;517
14;520
15;522
0;519
1;517
2;515
3;511
4;504
5;501
6;501
7;501
8;504
9;513
10;519
11;526
12;534
13;540
14;538
15;535
0;531
1;521
2;511
3;510
4;510
5;507
6;506
7;509
8;515
9;520
10;525
11;530
12;536
13;543
14;548
15;550
0;551
1;547
2;541
3;535
4;527
5;519
6;516
7;515
8;514
9;512
10;513
11;518
12;519
13;521
14;521
15;519
0;516
1;515
2;512
3;507
4;502
5;500
6;499
7;502
8;508
9;518
10;529
11;539
12;547
13;553
14;557
15;558
0;560
1;554
2;537
3;522
4;510
5;503
6;504
7;509
8;514
9;513
10;511
11;513
12;523
13;531
14;530
15;529
0;528
1;526
2;524
3;524
4;519
5;513
6;511
7;513
8;513
9;513
10;517
11;525
12;531
13;535
14;538
15;542
0;545
1;546
2;545
3;542
4;538
5;536
6;535
7;536
8;534
9;533
10;533
11;533
12;534
13;537
14;544
15;550
0;551
1;555
2;555
3;549
4;545
5;539
6;536
7;537
8;541
9;547
10;555
11;560
12;554
13;546
14;542
15;540
0;545
1;547
2;545
3;542
4;536
5;527
6;527
7;530
8;529
9;524
10;522
11;521
12;521
13;525
14;530
15;531
0;532
1;536
2;540
3;540
4;538
5;534
6;526
7;520
8;517
9;514
10;514
11;511
12;512
13;510
14;508
15;510
0;509
1;510
2;511
3;512
4;514
5;514
6;511
7;507
8;505
9;503
10;500
11;496
12;490
13;490
14;493
15;495
0;496
1;494
2;489
3;482
4;474
5;472
6;476
7;475
8;472
9;467
10;462
11;460
12;460
13;463
14;467
15;472
0;479
1;485
2;490
3;493
4;495
5;494
6;494
7;494
8;489
9;483
10;481
11;475
12;469
13;469
14;471
15;473
0;478
1;484
2;489
3;497
4;503
5;502
6;499
7;495
8;491
9;488
10;489
11;489
12;483
13;477
14;473
15;470
0;474
1;486
2;487
3;490
4;493
5;497
6;496
7;495
8;495
9;495
10;490
11;484
12;484
13;481
14;477
15;475
0;474
1;479
2;487
3;491
4;492
5;495
6;500
7;501
8;504
9;508
10;509
11;508
12;506
13;497
14;483
15;472
0;470
1;471
2;477
3;478
4;476
5;478
6;481
7;483
8;485
9;488
10;490
11;486
12;479
13;472
14;471
15;471
0;472
1;474
2;476
3;479
4;485
5;488
6;493
7;498
8;500
9;502
10;504
11;501
12;497
13;493
14;490
15;490
0;487
1;486
2;487
3;488
4;491
5;495
6;498
7;501
8;505
9;505
10;503
11;503
12;502
13;499
14;496
15;493
0;492
1;490
2;487
3;493
4;499
5;504
6;507
7;512
8;519
9;518
10;508
11;503
12;501
13;497
14;487
15;483
0;485
1;480
2;480
3;487
4;487
5;487
6;492
7;499
8;504
9;511
10;514
11;514
12;510
13;505
14;501
15;496
0;493
1;488
2;487
3;489
4;489
5;491
6;497
7;503
8;507
9;514
10;519
11;517
12;515
13;515
14;511
15;506
0;502
1;496
2;495
3;494
4;494
5;494
6;497
7;504
8;508
9;514
10;518
11;523
12;522
13;521
14;520
15;515
0;511
1;507
2;501
3;495
4;494
5;492
6;494
7;502
8;511
9;513
10;506
11;502
12;503
13;505
14;508
15;509
0;506
1;498
2;487
3;481
4;481
5;484
6;487
7;488
8;491
9;501
10;508
11;512
12;517
13;517
14;514
15;514
0;514
1;510
2;509
3;504
4;499
5;498
6;499
7;501
8;504
9;510
10;514
11;522
12;532
13;536
14;532
15;529
0;528
1;523
2;518
3;513
4;506
5;500
6;497
7;500
8;509
9;521
10;523
11;523
12;524
13;525
14;525
15;527
0;526
1;519
2;509
3;502
4;500
5;499
6;499
7;500
8;500
9;503
10;511
11;516
12;522
13;527
14;531
15;533
0;532
1;531
2;528
3;524
4;518
5;513
6;511
7;511
8;511
9;510
10;511
11;516
12;521
13;527
14;527
15;528
0;528
1;526
2;524
3;519
4;513
5;509
6;503
7;499
8;499
9;505
10;510
11;509
12;512
13;514
14;512
15;505
0;499
1;493
2;488
3;483
4;483
5;483
6;478
7;477
8;479
9;478
10;478
11;487
12;492
13;503
14;510
15;517
0;521
1;519
2;520
3;517
4;512
5;506
6;497
7;488
8;484
9;483
10;486
11;487
12;488
13;492
14;497
15;503
0;507
1;512
2;513
3;512
4;513
5;511
6;505
7;502
8;498
9;495
10;492
11;493
12;496
13;499
14;507
15;511
0;515
1;519
2;518
3;517
4;518
5;516
6;513
7;508
8;504
9;499
10;495
11;494
12;495
13;498
14;501
15;506
0;515
1;519
2;523
3;522
4;520
5;523
6;523
7;522
8;519
9;515
10;513
11;516
12;521
13;524
14;528
15;535
0;544
1;553
2;564
3;577
4;588
5;592
6;597
7;604
8;612
9;622
10;630
11;632
12;637
13;647
14;658
15;658
0;652
1;648
2;649
3;638
4;624
5;615
6;611
7;607
8;597
9;583
10;566
11;543
12;522
13;503
14;481
15;460
0;447
1;435
2;423
3;415
4;415
5;413
6;405
7;398
8;394
9;394
10;396
11;400
12;400
13;403
14;409
15;415
0;419
1;425
2;433
3;444
4;456
5;466
6;472
7;476
8;479
9;479
10;477
11;475
12;472
13;471
14;475
15;479
0;481
1;486
2;494
3;501
4;509
5;516
6;521
7;525
8;524
9;525
10;527
11;530
12;531
13;519
14;494
15;481
0;476
1;472
2;476
3;487
4;502
5;508
6;508
7;510
8;514
9;513
10;511
11;512
12;509
13;506
14;509
15;513
0;514
1;515
2;513
3;518
4;518
5;519
6;521
7;521
8;519
9;519
10;520
11;519
12;518
13;514
14;506
15;501
0;500
1;501
2;504
3;510
4;521
5;529
6;537
7;543
8;546
9;545
10;540
11;536
12;535
13;527
14;521
15;518
0;512
1;508
2;503
3;500
4;502
5;506
6;513
7;522
8;523
9;524
10;528
11;528
12;523
13;518
14;513
15;509
0;504
1;502
2;501
3;501
4;504
5;511
6;513
7;521
8;529
9;536
10;540
11;539
12;536
13;530
14;525
15;521
0;516
1;512
2;513
3;517
4;521
5;524
6;536
7;547
8;551
9;554
10;553
11;551
12;544
13;535
14;526
15;518
0;510
1;504
2;507
3;509
4;511
5;515
6;529
7;542
8;543
9;542
10;544
11;548
12;550
13;553
14;553
15;534
0;517
1;510
2;506
3;511
4;517
5;526
6;536
7;539
8;534
9;534
10;530
11;522
12;523
13;527
14;526
15;518
0;511
1;511
2;509
3;507
4;503
5;502
6;506
7;513
8;523
9;530
10;539
11;548
12;553
13;550
14;539
15;528
0;526
1;524
2;523
3;519
4;515
5;513
6;512
7;513
8;514
9;517
10;522
11;527
12;529
13;528
14;530
15;532
0;534
1;529
2;523
3;518
4;513
5;509
6;505
7;505
8;504
9;504
10;506
11;510
12;513
13;515
14;516
15;516
0;516
1;508
2;501
3;496
4;491
5;484
6;482
7;480
8;482
9;487
10;494
11;499
12;503
13;505
14;507
15;505
0;499
1;489
2;478
3;469
4;466
5;463
6;467
7;480
8;479
9;479
10;482
11;485
12;484
13;483
14;485
15;491
0;496
1;496
2;493
3;486
4;478
5;472
6;468
7;465
8;466
9;465
10;465
11;472
12;479
13;485
14;494
15;501
0;505
1;505
2;504
3;501
4;492
5;484
6;477
7;474
8;474
9;476
10;475
11;478
12;482
13;487
14;494
15;500
0;504
1;506
2;507
3;507
4;501
5;495
6;494
7;490
8;489
9;492
10;492
11;490
12;488
13;491
14;494
15;499
0;504
1;511
2;516
3;513
4;499
5;482
6;472
7;466
8;463
9;460
10;460
11;465
12;470
13;481
14;489
15;497
0;505
1;510
2;508
3;507
4;510
5;509
6;503
7;499
8;493
9;486
10;481
11;480
12;482
13;485
14;490
15;495
0;499
1;504
2;506
3;505
4;505
5;502
6;498
7;493
8;489
9;484
10;481
11;480
12;481
13;483
14;487
15;492
0;498
1;504
2;512
3;515
4;516
5;520
6;525
7;524
8;520
9;519
10;512
11;503
12;500
13;502
14;507
15;515
0;518
1;511
2;499
3;489
4;485
5;487
6;489
7;492
8;495
9;492
10;491
11;486
12;487
13;483
14;483
15;484
0;491
1;494
2;492
3;493
4;497
5;502
6;501
7;498
8;494
9;486
10;483
11;485
12;487
13;487
14;492
15;495
0;501
1;504
2;502
3;503
4;507
5;508
6;508
7;504
8;499
9;496
10;491
11;490
12;490
13;485
14;486
15;486
0;489
1;493
2;497
3;497
4;501
5;503
6;505
7;504
8;503
9;500
10;496
11;489
12;487
13;486
14;484
15;486
0;486
1;486
2;484
3;487
4;497
5;512
6;527
7;534
8;535
9;527
10;499
11;467
12;446
13;434
14;433
15;445
0;455
1;470
2;488
3;505
4;516
5;517
6;517
7;503
8;489
9;482
10;486
11;489
12;491
13;490
14;484
15;479
0;478
1;477
2;480
3;487
4;494
5;499
6;502
7;507
8;510
9;511
10;511
11;511
12;506
13;501
14;499
15;498
0;495
1;494
2;495
3;494
4;498
5;503
6;509
7;517
8;523
9;524
10;520
11;517
12;515
13;509
14;506
15;502
0;497
1;497
2;499
3;500
4;502
5;508
6;514
7;520
8;527
9;530
10;532
11;533
12;533
13;529
14;525
15;520
0;517
1;513
2;511
3;508
4;506
5;505
6;507
7;511
8;516
9;526
10;535
11;534
12;533
13;525
14;512
15;498
0;486
1;481
2;480
3;476
4;476
5;481
6;484
7;486
8;491
9;496
10;501
11;507
12;511
13;514
14;513
15;507
0;495
1;488
2;486
3;486
4;489
5;492
6;496
7;503
8;509
9;513
10;518
11;520
12;519
13;520
14;520
15;516
0;509
1;501
2;496
3;495
4;498
5;498
6;498
7;500
8;505
9;512
10;518
11;523
12;528
13;531
14;533
15;532
0;528
1;526
2;525
3;519
4;513
5;511
6;512
7;510
8;514
9;526
10;534
11;539
12;544
13;546
14;539
15;531
0;527
1;525
2;521
3;510
4;501
5;501
6;506
7;513
8;517
9;511
10;502
11;496
12;497
13;499
14;508
15;520
0;529
1;534
2;537
3;537
4;537
5;543
6;552
7;562
8;573
9;583
10;598
11;612
12;627
13;644
14;659
15;667
0;671
1;672
2;670
3;668
4;667
5;664
6;661
7;655
8;647
9;637
10;630
11;624
12;616
13;609
14;601
15;589
0;571
1;551
2;528
3;502
4;475
5;450
6;426
7;408
8;398
9;395
10;394
11;397
12;402
13;408
14;415
15;421
0;428
1;435
2;440
3;452
4;453
5;450
6;453
7;455
8;457
9;459
10;452
11;452
12;463
13;467
14;464
15;467
0;478
1;479
2;477
3;472
4;463
5;463
6;471
7;476
8;479
9;483
10;491
11;493
12;499
13;506
14;509
15;514
0;520
1;524
2;523
3;526
4;528
5;526
6;521
7;515
8;508
9;502
10;503
11;508
12;511
13;515
14;522
15;527
0;534
1;539
2;539
3;536
4;530
5;526
6;521
7;520
8;520
9;518
10;517
11;515
12;512
13;512
14;517
15;524
0;530
1;535
2;538
3;537
4;534
5;533
6;534
7;529
8;519
9;516
10;516
11;518
12;525
13;526
14;530
15;528
0;520
1;518
2;517
3;521
4;521
5;522
6;519
7;521
8;518
9;503
10;494
11;494
12;500
13;503
14;504
15;507
0;513
1;520
2;523
3;527
4;529
5;527
6;525
7;522
8;518
9;513
10;511
11;508
12;507
13;505
14;505
15;508
0;515
1;524
2;530
3;537
4;543
5;543
6;542
7;538
8;532
9;527
10;527
11;526
12;525
13;523
14;522
15;524
0;529
1;535
2;537
3;538
4;538
5;540
6;537
7;539
8;540
9;535
10;528
11;525
12;522
13;520
14;521
15;524
0;527
1;529
2;529
3;531
4;530
5;534
6;539
7;543
8;544
9;544
10;539
11;526
12;516
13;515
14;518
15;521
0;530
1;528
2;525
3;527
4;531
5;536
6;538
7;537
8;539
9;539
10;536
11;533
12;528
13;523
14;515
15;512
0;511
1;512
2;516
3;523
4;530
5;535
6;537
7;540
8;537
9;532
10;529
11;524
12;519
13;515
14;511
15;507
0;505
1;503
2;502
3;504
4;510
5;513
6;519
7;523
8;529
9;532
10;533
11;533
12;528
13;521
14;510
15;501
0;495
1;490
2;483
3;479
4;482
5;483
6;484
7;490
8;496
9;497
10;499
11;496
12;487
13;480
14;473
15;466
0;460
1;463
2;467
3;472
4;476
5;480
6;481
7;481
8;485
9;491
10;488
11;485
12;483
13;477
14;472
15;471
0;469
1;466
2;464
3;464
4;467
5;471
6;479
7;484
8;490
9;494
10;495
11;495
12;494
13;492
14;487
15;481
0;475
1;471
2;470
3;472
4;474
5;476
6;481
7;486
8;487
9;491
10;495
11;499
12;502
13;498
14;493
15;489
0;485
1;481
2;479
3;479
4;480
5;481
6;484
7;487
8;493
9;492
10;493
11;498
12;497
13;495
14;496
15;495
0;496
1;499
2;497
3;488
4;481
5;485
6;484
7;481
8;483
9;483
10;486
11;488
12;488
13;486
14;487
15;485
0;481
1;477
2;473
3;471
4;473
5;476
6;479
7;482
8;487
9;495
10;502
11;508
12;514
13;517
14;516
15;513
0;511
1;507
2;499
3;493
4;488
5;485
6;487
7;492
8;498
9;502
10;505
11;507
12;510
13;513
14;513
15;510
0;508
1;504
2;501
3;499
4;494
5;491
6;489
7;490
8;492
9;495
10;500
11;505
12;510
13;516
14;519
15;519
0;518
1;517
2;515
3;512
4;510
5;509
6;512
7;512
8;512
9;507
10;503
11;501
12;505
13;510
14;516
15;518
0;516
1;515
2;515
3;511
4;501
5;494
6;487
7;478
8;473
9;476
10;480
11;481
12;486
13;492
14;499
15;509
0;514
1;517
2;518
3;513
4;504
5;488
6;473
7;467
8;474
9;483
10;488
11;492
12;495
13;501
14;507
15;512
0;517
1;519
2;518
3;517
4;513
5;509
6;507
7;505
8;503
9;502
10;501
11;503
12;509
13;516
14;519
15;524
0;527
1;527
2;524
3;524
4;521
5;516
6;511
7;507
8;502
9;499
10;496
11;496
12;498
13;504
14;508
15;513
0;519
1;522
2;523
3;525
4;526
5;528
6;526
7;520
8;519
9;513
10;501
11;494
12;495
13;505
14;516
15;523
0;526
1;527
2;530
3;524
4;510
5;502
6;499
7;498
8;502
9;503
10;499
11;488
12;487
13;480
14;477
15;480
0;486
1;492
2;494
3;491
4;493
5;502
6;509
7;510
8;512
9;512
10;512
11;513
12;512
13;514
14;519
15;524
0;531
1;537
2;540
3;544
4;544
5;542
6;537
7;532
8;527
9;522
10;520
11;517
12;516
13;520
14;523
15;526
0;526
1;528
2;528
3;529
4;528
5;524
6;517
7;512
8;505
9;498
10;496
11;499
12;507
13;509
14;494
15;485
0;487
1;497
2;507
3;507
4;504
5;509
6;514
7;520
8;522
9;515
10;506
11;503
12;504
13;505
14;510
15;515
0;514
1;511
2;511
3;509
4;510
5;506
6;500
7;498
8;503
9;507
10;508
11;502
12;488
13;473
14;467
15;470
0;475
1;487
2;502
3;513
4;524
5;531
6;537
7;537
8;536
9;536
10;532
11;527
12;521
13;516
14;515
15;512
0;508
1;507
2;506
3;510
4;514
5;517
6;519
7;516
8;513
9;512
10;511
11;506
12;496
13;486
14;481
15;485
0;489
1;493
2;507
3;518
4;526
5;531
6;541
7;551
8;552
9;547
10;548
11;546
12;546
13;544
14;539
15;539
0;543
1;539
2;535
3;544
4;559
5;573
6;587
7;606
8;621
9;632
10;643
11;651
12;654
13;655
14;656
15;658
0;657
1;653
2;648
3;642
4;639
5;634
6;628
7;621
8;615
9;607
10;594
11;574
12;548
13;521
14;493
15;464
0;436
1;413
2;395
3;382
4;372
5;369
6;374
7;381
8;388
9;396
10;400
11;403
12;404
13;404
14;405
15;407
0;410
1;414
2;418
3;424
4;425
5;430
6;440
7;448
8;453
9;460
10;467
11;472
12;479
13;485
14;487
15;491
0;491
1;491
2;489
3;485
4;487
5;491
6;489
7;493
8;492
9;494
10;494
11;494
12;499
13;505
14;507
15;506
0;502
1;497
2;492
3;490
4;489
5;490
6;492
7;498
8;506
9;515
10;524
11;527
12;529
13;532
14;532
15;526
0;523
1;515
2;507
3;504
4;503
5;507
6;507
7;509
8;514
9;518
10;522
11;527
12;532
13;534
14;532
15;529
0;525
1;518
2;513
3;509
4;506
5;503
6;503
7;503
8;504
9;510
10;515
11;517
12;523
13;527
14;528
15;528
0;528
1;528
2;524
3;521
4;517
5;514
6;513
7;513
8;518
9;521
10;519
11;511
12;507
13;511
14;513
15;515
0;517
1;512
2;507
3;498
4;493
5;498
6;503
7;508
8;509
9;510
10;518
11;527
12;530
13;536
14;537
15;534
0;533
1;532
2;528
3;524
4;520
5;519
6;519
7;521
8;527
9;528
10;529
11;535
12;539
13;540
14;545
15;547
0;548
1;549
2;547
3;544
4;540
5;535
6;529
7;524
8;526
9;528
10;533
11;541
12;550
13;557
14;563
15;572
0;576
1;577
2;569
3;561
4;553
5;542
6;536
7;534
8;535
9;535
10;531
11;517
12;507
13;504
14;510
15;518
0;528
1;539
2;543
3;540
4;536
5;533
6;531
7;530
8;529
9;530
10;530
11;529
12;528
13;530
14;531
15;534
0;536
1;540
2;542
3;541
4;538
5;534
6;530
7;528
8;527
9;527
10;528
11;527
12;529
13;531
14;534
15;536
0;541
1;545
2;547
3;547
4;547
5;536
6;518
7;503
8;499
9;500
10;498
11;498
12;498
13;501
14;506
15;512
0;516
1;519
2;523
3;522
4;517
5;515
6;508
7;498
8;493
9;489
10;484
11;484
12;487
13;492
14;494
15;499
0;501
1;501
2;504
3;504
4;505
5;509
6;511
7;509
8;498
9;481
10;467
11;458
12;451
13;455
14;462
15;466
0;471
1;477
2;482
3;488
4;497
5;494
6;491
7;485
8;480
9;476
10;475
11;477
12;477
13;477
14;473
15;471
0;475
1;480
2;484
3;488
4;493
5;495
6;498
7;503
8;502
9;501
10;500
11;497
12;494
13;492
14;491
15;490
0;492
1;497
2;503
3;507
4;511
5;515
6;517
7;515
8;513
9;507
10;501
11;499
12;494
13;491
14;488
15;488
0;491
1;495
2;499
3;503
4;511
5;519
6;517
7;511
8;510
9;511
10;502
11;492
12;489
13;485
14;478
15;480
0;483
1;486
2;492
3;501
4;511
5;521
6;532
7;538
8;529
9;521
10;516
11;508
12;504
13;504
14;506
15;505
0;500
1;499
2;498
3;498
4;494
5;488
6;486
7;491
8;502
9;509
10;511
11;504
12;495
13;490
14;488
15;489
0;491
1;492
2;495
3;501
4;508
5;514
6;519
7;524
8;528
9;525
10;524
11;524
12;519
13;512
14;509
15;508
0;506
1;504
2;503
3;503
4;505
5;512
6;519
7;526
8;532
9;538
10;540
11;542
12;540
13;535
14;528
15;521
0;514
1;511
2;510
3;508
4;510
5;516
6;523
7;530
8;535
9;538
10;542
11;539
12;530
13;515
14;501
15;498
0;502
1;503
2;505
3;506
4;496
5;486
6;481
7;487
8;500
9;512
10;516
11;515
12;515
13;515
14;513
15;507
0;501
1;499
2;498
3;500
4;502
5;505
6;514
7;524
8;532
9;538
10;543
11;548
12;548
13;544
14;537
15;529
0;520
1;510
2;504
3;501
4;498
5;493
6;490
7;494
8;506
9;516
10;524
11;527
12;532
13;533
14;535
15;539
0;543
1;535
2;532
3;534
4;532
5;529
6;527
7;527
8;529
9;532
10;536
11;539
12;538
13;535
14;533
15;531
0;527
1;524
2;525
3;525
4;523
5;526
6;530
7;533
8;539
9;544
10;551
11;556
12;558
13;556
14;552
15;547
0;543
1;538
2;524
3;514
4;508
5;507
6;509
7;511
8;511
9;512
10;517
11;520
12;522
13;524
14;526
15;529
0;535
1;540
2;536
3;528
4;512
5;496
6;487
7;485
8;493
9;500
10;508
11;521
12;528
13;531
14;527
15;520
0;514
1;510
2;511
3;513
4;517
5;519
6;517
7;514
8;513
9;515
10;516
11;519
12;527
13;533
14;536
15;539
0;540
1;541
2;538
3;528
4;518
5;513
6;508
7;506
8;511
9;513
10;513
11;517
12;523
13;527
14;530
15;535
0;539
1;540
2;537
3;533
4;523
5;518
6;515
7;512
8;511
9;511
10;511
11;512
12;515
13;519
14;525
15;531
0;535
1;538
2;537
3;539
4;538
5;532
6;529
7;529
8;529
9;527
10;529
11;534
12;537
13;541
14;548
15;555
0;565
1;577
2;587
3;597
4;604
5;604
6;611
7;616
8;619
9;625
10;632
11;639
12;649
13;662
14;676
15;683
0;687
1;689
2;685
3;676
4;660
5;639
6;619
7;601
8;583
9;566
10;549
11;530
12;512
13;494
14;476
15;459
0;441
1;427
2;415
3;405
4;398
5;395
6;391
7;389
8;388
9;389
10;393
11;401
12;409
13;417
14;426
15;437
0;448
1;453
2;456
3;462
4;471
5;479
6;481
7;482
8;482
9;479
10;478
11;480
12;486
13;492
14;498
15;502
0;502
1;500
2;499
3;505
4;509
5;507
6;505
7;502
8;494
9;491
10;497
11;507
12;510
13;516
14;524
15;528
0;529
1;528
2;523
3;515
4;505
5;495
6;491
7;494
8;502
9;505
10;504
11;505
12;501
13;502
14;504
15;507
0;511
1;516
2;522
3;527
4;532
5;536
6;538
7;540
8;537
9;533
10;529
11;529
12;529
13;527
14;525
15;525
0;526
1;529
2;534
3;539
4;542
5;545
6;547
7;547
8;546
9;543
10;536
11;530
12;525
13;520
14;516
15;516
0;519
1;520
2;523
3;527
4;532
5;539
6;542
7;541
8;544
9;543
10;539
11;533
12;531
13;532
14;527
15;523
0;520
1;520
2;519
3;524
4;526
5;529
6;536
7;541
8;541
9;540
10;536
11;517
12;502
13;499
14;497
15;498
0;500
1;503
2;507
3;513
4;526
5;535
6;539
7;545
8;551
9;552
10;548
11;542
12;532
13;524
14;519
15;518
0;517
1;516
2;518
3;518
4;520
5;527
6;534
7;539
8;545
9;548
10;550
11;549
12;547
13;542
14;538
15;534
0;530
1;529
2;528
3;529
4;532
5;537
6;543
7;545
8;548
9;550
10;549
11;549
12;547
13;543
14;538
15;537
0;535
1;530
2;526
3;526
4;529
5;532
6;535
7;538
8;540
9;543
10;547
11;546
12;544
13;543
14;541
15;541
0;531
1;525
2;524
3;524
4;519
5;513
6;511
7;510
8;513
9;524
10;534
11;539
12;542
13;538
14;530
15;518
0;511
1;510
2;510
3;505
4;502
5;503
6;501
7;495
8;495
9;497
10;493
11;490
12;492
13;496
14;495
15;487
0;480
1;474
2;473
3;468
4;465
5;467
6;472
7;476
8;480
9;483
10;484
11;484
12;485
13;483
14;485
15;489
0;490
1;485
2;477
3;471
4;465
5;462
6;461
7;461
8;463
9;466
10;473
11;480
12;486
13;486
14;486
15;486
0;481
1;474
2;465
3;462
4;458
5;455
6;456
7;456
8;457
9;466
10;476
11;481
12;479
13;476
14;475
15;477
0;479
1;478
2;476
3;476
4;477
5;477
6;473
7;462
8;449
9;443
10;445
11;451
12;459
13;466
14;473
15;484
0;483
1;475
2;459
3;444
4;442
5;441
6;438
7;442
8;449
9;449
10;454
11;460
12;466
13;472
14;479
15;485
0;487
1;489
2;496
3;495
4;491
5;487
6;482
7;474
8;469
9;469
10;471
11;477
12;483
13;488
14;493
15;499
0;504
1;506
2;507
3;503
4;494
5;487
6;483
7;480
8;479
9;479
10;479
11;481
12;485
13;489
14;493
15;500
0;503
1;504
2;506
3;504
4;498
5;492
6;488
7;487
8;483
9;481
10;482
11;482
12;485
13;490
14;492
15;498
0;504
1;507
2;508
3;512
4;517
5;513
6;510
7;499
8;488
9;483
10;480
11;482
12;486
13;484
14;486
15;492
0;502
1;512
2;519
3;527
4;525
5;520
6;508
7;493
8;483
9;480
10;481
11;482
12;481
13;480
14;481
15;486
0;489
1;498
2;504
3;507
4;513
5;515
6;510
7;505
8;502
9;499
10;502
11;502
12;503
13;507
14;512
15;513
0;513
1;513
2;516
3;518
4;515
5;511
6;512
7;510
8;507
9;505
10;502
11;500
12;501
13;500
14;500
15;501
0;506
1;509
2;510
3;514
4;518
5;518
6;517
7;514
8;509
9;506
10;504
11;501
12;500
13;501
14;502
15;500
0;500
1;504
2;505
3;510
4;515
5;519
6;520
7;519
8;514
9;511
10;507
11;502
12;498
13;493
14;497
15;496
0;502
1;511
2;511
3;514
4;516
5;519
6;516
7;505
8;498
9;495
10;493
11;491
12;487
13;489
14;491
15;491
0;492
1;494
2;505
3;510
4;501
5;499
6;502
7;507
8;508
9;505
10;502
11;503
12;504
13;499
14;495
15;496
0;503
1;510
2;517
3;522
4;526
5;533
6;535
7;533
8;529
9;526
10;524
11;522
12;519
13;514
14;509
15;508
0;511
1;513
2;514
3;518
4;521
5;523
6;526
7;528
8;527
9;526
10;524
11;520
12;515
13;511
14;507
15;503
0;503
1;505
2;505
3;508
4;513
5;514
6;514
7;520
8;528
9;531
10;532
11;529
12;527
13;510
14;495
15;487
0;487
1;487
2;489
3;496
4;500
5;501
6;505
7;515
8;522
9;521
10;519
11;518
12;519
13;519
14;517
15;518
0;522
1;526
2;523
3;507
4;487
5;482
6;492
7;501
8;504
9;508
10;512
11;510
12;508
13;506
14;503
15;503
0;497
1;489
2;484
3;483
4;484
5;489
6;497
7;507
8;515
9;522
10;526
11;528
12;528
13;526
14;522
15;515
0;513
1;508
2;503
3;503
4;502
5;504
6;508
7;515
8;524
9;530
10;537
11;540
12;537
13;535
14;535
15;530
0;524
1;519
2;517
3;516
4;521
5;527
6;534
7;542
8;550
9;556
10;566
11;577
12;584
13;591
14;598
15;603
0;610
1;618
2;621
3;622
4;622
5;627
6;632
7;643
8;656
9;666
10;671
11;678
12;684
13;675
14;664
15;651
0;634
1;619
2;602
3;578
4;551
5;526
6;504
7;483
8;460
9;439
10;423
11;414
12;410
13;403
14;397
15;392
0;392
1;392
2;391
3;390
4;387
5;388
6;394
7;401
8;409
9;419
10;430
11;440
12;451
13;460
14;466
15;470
0;479
1;483
2;480
3;476
4;472
5;473
6;480
7;487
8;496
9;501
10;507
11;510
12;514
13;518
14;522
15;522
0;523
1;522
2;520
3;516
4;512
5;506
6;501
7;500
8;498
9;500
10;505
11;513
12;524
13;533
14;540
15;548
0;552
1;543
2;532
3;526
4;522
5;521
6;514
7;502
8;492
9;482
10;482
11;493
12;504
13;512
14;516
15;518
0;516
1;516
2;520
3;518
4;511
5;507
6;502
7;499
8;502
9;509
10;513
11;515
12;519
13;522
14;525
15;530
0;537
1;538
2;535
3;537
4;533
5;521
6;514
7;512
8;509
9;507
10;508
11;510
12;512
13;517
14;524
15;529
0;536
1;541
2;542
3;542
4;538
5;532
6;527
7;525
8;521
9;516
10;513
11;514
12;515
13;517
14;521
15;527
0;532
1;539
2;547
3;553
4;559
5;556
6;548
7;542
8;540
9;535
10;527
11;524
12;524
13;527
14;532
15;537
0;544
1;550
2;547
3;544
4;542
5;538
6;535
7;531
8;528
9;525
10;522
11;523
12;526
13;532
14;541
15;551
0;553
1;556
2;553
3;546
4;541
5;538
6;533
7;527
8;524
9;519
10;518
11;515
12;515
13;521
14;523
15;525
0;529
1;534
2;543
3;551
4;557
5;557
6;557
7;555
8;547
9;541
10;536
11;534
12;535
13;539
14;544
15;548
0;551
1;555
2;555
3;555
4;556
5;556
6;555
7;555
8;555
9;552
10;549
11;544
12;539
13;534
14;531
15;531
0;533
1;537
2;542
3;549
4;555
5;556
6;553
7;550
8;546
9;542
10;536
11;531
12;524
13;519
14;521
15;521
0;520
1;521
2;525
3;526
4;525
5;527
6;526
7;521
8;521
9;519
10;515
11;513
12;512
13;507
14;502
15;503
0;501
1;500
2;505
3;515
4;520
5;522
6;524
7;518
8;511
9;502
10;497
11;493
12;487
13;479
14;472
15;470
0;473
1;475
2;476
3;484
4;493
5;499
6;504
7;508
8;508
9;505
10;499
11;496
12;495
13;497
14;501
15;498
0;492
1;487
2;485
3;486
4;489
5;498
6;504
7;508
8;515
9;514
10;515
11;513
12;510
13;506
14;503
15;499
0;495
1;494
2;495
3;496
4;501
5;508
6;513
7;518
8;522
9;523
10;521
11;520
12;518
13;512
14;508
15;504
0;501
1;499
2;505
3;507
4;510
5;515
6;519
7;521
8;521
9;519
10;518
11;521
12;523
13;523
14;520
15;512
0;503
1;491
2;483
3;484
4;489
5;493
6;498
7;501
8;507
9;512
10;514
11;511
12;511
13;510
14;504
15;498
0;494
1;490
2;487
3;487
4;492
5;498
6;502
7;507
8;511
9;512
10;518
11;522
12;523
13;527
14;528
15;521
0;510
1;497
2;489
3;485
4;487
5;492
6;495
7;501
8;507
9;511
10;516
11;522
12;524
13;520
14;516
15;511
0;503
1;494
2;488
3;487
4;487
5;488
6;488
7;490
8;497
9;505
10;510
11;513
12;515
13;517
14;523
15;525
0;524
1;523
2;520
3;517
4;506
5;496
6;493
7;495
8;501
9;504
10;508
11;514
12;513
13;512
14;513
15;517
0;518
1;513
2;505
3;499
4;498
5;497
6;496
7;495
8;496
9;504
10;506
11;507
12;512
13;517
14;519
15;513
0;504
1;499
2;499
3;499
4;499
5;505
6;508
7;507
8;502
9;497
10;498
11;498
12;500
13;507
14;511
15;513
0;517
1;519
2;516
3;512
4;510
5;504
6;496
7;493
8;493
9;495
10;502
11;512
12;523
13;530
14;533
15;532
0;527
1;524
2;521
3;517
4;514
5;511
6;508
7;507
8;510
9;514
10;515
11;516
12;518
13;521
14;524
15;531
0;536
1;538
2;538
3;534
4;524
5;516
6;512
7;513
8;519
9;519
10;515
11;514
12;514
13;511
14;510
15;515
0;522
1;523
2;523
3;516
4;504
5;494
6;487
7;475
8;462
9;457
10;460
11;468
12;480
13;489
14;500
15;508
0;512
1;516
2;518
3;520
4;521
5;518
6;511
7;506
8;506
9;503
10;499
11;501
12;500
13;499
14;498
15;502
0;510
1;516
2;521
3;524
4;526
5;523
6;517
7;510
8;504
9;501
10;499
11;502
12;504
13;505
14;507
15;508
0;510
1;515
2;519
3;521
4;521
5;518
6;514
7;509
8;503
9;497
10;493
11;493
12;496
13;498
14;500
15;504
0;508
1;511
2;514
3;515
4;518
5;525
6;530
7;522
8;511
9;503
10;488
11;475
12;477
13;486
14;494
15;503
0;510
1;515
2;517
3;518
4;523
5;524
6;526
7;530
8;527
9;523
10;526
11;526
12;529
13;535
14;541
15;549
0;558
1;571
2;584
3;599
4;612
5;623
6;634
7;641
8;645
9;646
10;647
11;652
12;652
13;654
14;656
15;650
0;641
1;633
2;623
3;616
4;611
5;603
6;587
7;573
8;555
9;530
10;503
11;476
12;450
13;425
14;407
15;395
0;384
1;380
2;383
3;390
4;397
5;403
6;409
7;413
8;418
9;422
10;425
11;430
12;431
13;430
14;433
15;435
0;434
1;438
2;448
3;460
4;470
5;480
6;488
7;492
8;488
9;487
10;488
11;485
12;484
13;486
14;487
15;491
0;499
1;504
2;506
3;510
4;516
5;521
6;526
7;533
8;537
9;540
10;540
11;539
12;535
13;528
14;520
15;515
0;512
1;513
2;514
3;516
4;523
5;528
6;533
7;536
8;540
9;539
10;537
11;537
12;534
13;530
14;527
15;526
0;522
1;521
2;519
3;514
4;518
5;526
6;534
7;540
8;545
9;546
10;545
11;546
12;540
13;530
14;523
15;519
0;515
1;509
2;511
3;515
4;515
5;517
6;521
7;526
8;531
9;537
10;541
11;539
12;538
13;537
14;536
15;533
0;530
1;528
2;527
3;527
4;527
5;531
6;537
7;543
8;547
9;550
10;552
11;551
12;551
13;551
14;547
15;548
0;548
1;539
2;533
3;530
4;527
5;528
6;536
7;540
8;538
9;539
10;540
11;543
12;546
13;549
14;549
15;547
0;540
1;534
2;530
3;527
4;528
5;532
6;534
7;536
8;544
9;548
10;551
11;552
12;549
13;548
14;547
15;547
0;545
1;537
2;533
3;533
4;534
5;538
6;541
7;547
8;553
9;557
10;556
11;556
12;557
13;556
14;558
15;557
0;550
1;545
2;543
3;541
4;537
5;537
6;539
7;540
8;541
9;546
10;551
11;557
12;564
13;567
14;566
15;563
0;558
1;551
2;543
3;538
4;535
5;531
6;531
7;533
8;534
9;540
10;547
11;556
12;560
13;560
14;557
15;554
0;555
1;546
2;539
3;534
4;531
5;528
6;521
7;518
8;516
9;516
10;518
11;523
12;530
13;532
14;538
15;544
0;544
1;536
2;526
3;516
4;507
5;503
6;503
7;508
8;508
9;512
10;519
11;522
12;513
13;502
14;498
15;498
0;498
1;497
2;495
3;503
4;503
5;493
6;483
7;470
8;465
9;463
10;465
11;472
12;480
13;489
14;497
15;502
0;507
1;506
2;505
3;500
4;492
5;488
6;487
7;482
8;479
9;478
10;480
11;483
12;490
13;496
14;502
15;508
0;511
1;512
2;510
3;510
4;505
5;503
6;501
7;499
8;495
9;492
10;493
11;490
12;490
13;497
14;508
15;514
0;517
1;521
2;519
3;515
4;512
5;504
6;498
7;496
8;492
9;487
10;490
11;492
12;492
13;494
14;500
15;505
0;508
1;508
2;508
3;510
4;512
5;510
6;507
7;506
8;507
9;503
10;498
11;494
12;490
13;490
14;494
15;496
0;500
1;507
2;511
3;511
4;515
5;521
6;519
7;519
8;512
9;504
10;499
11;496
12;497
13;497
14;496
15;495
0;495
1;500
2;509
3;515
4;517
5;515
6;514
7;515
8;513
9;508
10;498
11;495
12;498
13;502
14;510
15;515
0;519
1;521
2;523
3;524
4;523
5;521
6;521
7;524
8;525
9;521
10;516
11;511
12;510
13;511
14;510
15;510
0;514
1;518
2;523
3;527
4;532
5;534
6;530
7;524
8;519
9;515
10;516
11;518
12;518
13;519
14;523
15;525
0;519
1;522
2;528
3;528
4;528
5;529
6;527
7;527
8;525
9;517
10;510
11;509
12;505
13;498
14;491
15;485
0;488
1;497
2;508
3;507
4;504
5;511
6;519
7;526
8;528
9;525
10;519
11;514
12;511
13;508
14;506
15;508
0;508
1;507
2;511
3;515
4;518
5;522
6;526
7;528
8;528
9;529
10;528
11;525
12;524
13;520
14;518
15;515
0;513
1;512
2;514
3;518
4;524
5;529
6;535
7;538
8;538
9;537
10;536
11;531
12;525
13;521
14;514
15;510
0;509
1;511
2;517
3;526
4;541
5;551
6;544
7;539
8;529
9;520
10;519
11;518
12;516
13;510
14;498
15;487
0;483
1;492
2;498
3;498
4;506
5;511
6;513
7;519
8;528
9;533
10;532
11;535
12;537
13;538
14;533
15;513
0;497
1;484
2;483
3;479
4;472
5;476
6;487
7;496
8;500
9;505
10;509
11;509
12;507
13;503
14;499
15;498
0;497
1;495
2;495
3;494
4;495
5;497
6;501
7;506
8;511
9;516
10;516
11;517
12;518
13;518
14;513
15;508
0;503
1;500
2;497
3;496
4;496
5;497
6;501
7;508
8;512
9;518
10;522
11;524
12;524
13;524
14;522
15;516
0;511
1;508
2;500
3;492
4;492
5;495
6;495
7;499
8;507
9;507
10;507
11;503
12;504
13;506
14;510
15;511
0;512
1;512
2;515
3;523
4;526
5;524
6;511
7;489
8;478
9;482
10;491
11;499
12;508
13;508
14;504
15;506
0;504
1;498
2;497
3;497
4;500
5;503
6;504
7;507
8;515
9;524
10;532
11;540
12;550
13;556
14;562
15;571
0;577
1;580
2;583
3;590
4;597
5;604
6;611
7;618
8;624
9;634
10;646
11;655
12;657
13;657
14;649
15;636
0;619
1;605
2;588
3;570
4;551
5;532
6;514
7;495
8;476
9;457
10;439
11;423
12;409
13;402
14;398
15;393
0;386
1;383
2;379
3;376
4;376
5;377
6;380
7;388
8;398
9;403
10;409
11;416
12;422
13;432
14;441
15;449
0;454
1;457
2;461
3;465
4;467
5;469
6;472
7;478
8;480
9;482
10;488
11;493
12;499
13;509
14;515
15;514
0;510
1;502
2;496
3;491
4;487
5;486
6;484
7;484
8;486
9;489
10;493
11;494
12;502
13;512
14;518
15;518
0;521
1;525
2;524
3;519
4;515
5;509
6;502
7;496
8;492
9;492
10;495
11;498
12;505
13;512
14;517
15;521
0;526
1;528
2;527
3;527
4;527
5;524
6;519
7;516
8;509
9;501
10;502
11;507
12;511
13;516
14;522
15;526
0;528
1;528
2;526
3;526
4;526
5;521
6;517
7;511
8;503
9;498
10;493
11;491
12;487
13;480
14;480
15;487
0;497
1;508
2;514
3;520
4;527
5;527
6;522
7;518
8;516
9;521
10;521
11;514
12;510
13;508
14;509
15;514
0;520
1;527
2;535
3;540
4;535
5;529
6;524
7;522
8;521
9;520
10;513
11;508
12;508
13;507
14;505
15;505
0;511
1;516
2;520
3;524
4;526
5;527
6;526
7;522
8;516
9;514
10;515
11;512
12;510
13;511
14;514
15;518
0;523
1;531
2;542
3;550
4;551
5;549
6;541
7;535
8;531
9;524
10;519
11;517
12;516
13;521
14;527
15;525
0;521
1;520
2;524
3;529
4;531
5;532
6;528
7;521
8;510
9;499
10;490
11;487
12;485
13;485
14;492
15;497
0;498
1;498
2;502
3;508
4;512
5;515
6;516
7;517
8;519
9;516
10;508
11;505
12;506
13;504
14;500
15;502
0;505
1;505
2;507
3;510
4;512
5;515
6;517
7;517
8;514
9;512
10;507
11;500
12;495
13;488
14;483
15;481
0;481
1;483
2;488
3;495
4;500
5;504
6;504
7;502
8;498
9;496
10;495
11;492
12;485
13;477
14;468
15;460
0;456
1;455
2;456
3;462
4;468
5;474
6;480
7;486
8;490
9;490
10;491
11;492
12;481
13;463
14;447
15;439
0;436
1;443
2;449
3;453
4;457
5;463
6;469
7;476
8;476
9;473
10;467
11;457
12;450
13;447
14;447
15;445
0;441
1;433
2;433
3;439
4;444
5;451
6;457
7;462
8;467
9;470
10;468
11;468
12;470
13;469
14;462
15;456
0;454
1;453
2;452
3;454
4;456
5;461
6;467
7;475
8;480
9;486
10;490
11;492
12;492
13;490
14;486
15;480
0;477
1;474
2;473
3;473
4;474
5;475
6;480
7;489
8;498
9;501
10;499
11;497
12;494
13;491
14;489
15;487
0;485
1;481
2;478
3;477
4;472
5;472
6;487
7;489
8;479
9;471
10;472
11;478
12;480
13;481
14;483
15;485
0;486
1;484
2;481
3;470
4;464
5;471
6;479
7;487
8;491
9;494
10;497
11;501
12;499
13;494
14;492
15;491
0;486
1;482
2;480
3;480
4;478
5;478
6;482
7;486
8;491
9;498
10;502
11;507
12;513
13;518
14;518
15;518
0;517
1;512
2;503
3;496
4;491
5;487
6;486
7;489
8;492
9;498
10;503
11;504
12;505
13;510
14;514
15;518
0;519
1;519
2;514
3;508
4;506
5;502
6;498
7;498
8;497
9;495
10;496
11;501
12;506
13;510
14;517
15;522
0;524
1;521
2;515
3;507
4;505
5;506
6;504
7;500
8;499
9;497
10;502
11;509
12;516
13;520
14;522
15;524
0;528
1;534
2;535
3;527
4;511
5;497
6;488
7;488
8;492
9;493
10;494
11;499
12;505
13;510
14;516
15;524
0;526
1;527
2;528
3;528
4;526
5;520
6;516
7;511
8;509
9;510
10;511
11;514
12;518
13;523
14;526
15;529
0;531
1;535
2;539
3;539
4;534
5;528
6;522
7;516
8;510
9;509
10;515
11;524
12;536
13;544
14;548
15;550
0;550
1;550
2;549
3;545
4;540
5;534
6;531
7;527
8;525
9;521
10;519
11;518
12;516
13;517
14;518
15;518
0;522
1;522
2;512
3;506
4;499
5;499
6;503
7;508
8;505
9;499
10;495
11;492
12;494
13;496
14;510
15;516
0;516
1;511
2;509
3;510
4;511
5;510
6;504
7;499
8;497
9;496
10;491
11;490
12;491
13;491
14;496
15;503
0;510
1;516
2;523
3;527
4;528
5;528
6;529
7;525
8;521
9;520
10;517
11;515
12;512
13;511
14;512
15;514
0;519
1;525
2;531
3;535
4;537
5;537
6;537
7;534
8;530
9;525
10;518
11;512
12;510
13;510
14;511
15;513
0;518
1;524
2;532
3;535
4;535
5;533
6;535
7;541
8;539
9;527
10;518
11;512
12;507
13;504
14;509
15;519
0;527
1;530
2;533
3;542
4;548
5;553
6;563
7;574
8;578
9;580
10;581
11;585
12;592
13;599
14;609
15;622
0;635
1;644
2;656
3;663
4;669
5;671
6;669
7;665
8;657
9;647
10;632
11;614
12;599
13;583
14;567
15;553
0;537
1;519
2;504
3;487
4;471
5;455
6;440
7;424
8;409
9;399
10;392
11;388
12;386
13;388
14;385
15;386
0;392
1;399
2;413
3;428
4;437
5;443
6;449
7;458
8;467
9;475
10;479
11;479
12;479
13;480
14;475
15;473
0;476
1;480
2;482
3;485
4;492
5;497
6;504
7;511
8;514
9;516
10;519
11;519
12;518
13;511
14;506
15;505
0;502
1;504
2;507
3;511
4;515
5;521
6;526
7;531
8;541
9;543
10;543
11;549
12;553
13;553
14;546
15;543
0;536
1;514
2;500
3;492
4;494
5;504
6;514
7;519
8;523
9;529
10;531
11;527
12;524
13;521
14;515
15;513
0;512
1;512
2;516
3;523
4;528
5;529
6;526
7;524
8;519
9;513
10;516
11;518
12;519
13;519
14;515
15;512
0;512
1;512
2;513
3;514
4;513
5;512
6;513
7;520
8;529
9;539
10;546
11;548
12;547
13;548
14;545
15;540
0;538
1;536
2;532
3;527
4;524
5;524
6;524
7;524
8;528
9;532
10;536
11;539
12;543
13;548
14;551
15;552
0;550
1;544
2;537
3;532
4;531
5;528
6;525
7;522
8;524
9;530
10;535
11;540
12;549
13;557
14;560
15;558
0;546
1;537
2;528
3;511
4;498
5;494
6;497
7;498
8;500
9;511
10;524
11;530
12;533
13;534
14;536
15;539
0;537
1;531
2;525
3;519
4;515
5;514
6;518
7;520
8;524
9;532
10;541
11;549
12;556
13;557
14;556
15;554
0;555
1;553
2;548
3;539
4;532
5;529
6;527
7;527
8;528
9;534
10;538
11;538
12;541
13;547
14;550
15;546
0;544
1;543
2;537
3;533
4;528
5;527
6;526
7;522
8;518
9;518
10;522
11;528
12;529
13;536
14;548
15;551
0;545
1;539
2;532
3;521
4;510
5;502
6;500
7;503
8;506
9;511
10;515
11;522
12;526
13;525
14;525
15;524
0;519
1;512
2;504
3;495
4;488
5;489
6;491
7;489
8;486
9;487
10;487
11;483
12;488
13;495
14;501
15;505
0;505
1;502
2;499
3;499
4;497
5;493
6;492
7;493
8;495
9;498
10;509
11;515
12;502
13;480
14;467
15;468
0;468
1;470
2;475
3;479
4;479
5;478
6;476
7;476
8;474
9;473
10;477
11;479
12;478
13;479
14;483
15;489
0;496
1;502
2;504
3;506
4;507
5;504
6;497
7;492
8;490
9;489
10;489
11;490
12;491
13;492
14;497
15;502
0;508
1;513
2;515
3;515
4;513
5;510
6;505
7;502
8;498
9;492
10;486
11;486
12;493
13;498
14;501
15;504
0;504
1;504
2;508
3;510
4;514
5;516
6;519
7;515
8;503
9;491
10;483
11;478
12;480
13;483
14;487
15;491
0;498
1;502
2;508
3;513
4;516
5;515
6;516
7;514
8;507
9;502
10;498
11;495
12;492
13;490
14;492
15;494
0;498
1;506
2;514
3;519
4;524
5;528
6;524
7;508
8;495
9;487
10;483
11;478
12;475
13;477
14;485
15;494
0;500
1;506
2;509
3;513
4;520
5;525
6;525
7;524
8;520
9;515
10;508
11;503
12;499
13;499
14;503
15;507
0;507
1;510
2;513
3;510
4;511
5;514
6;517
7;518
8;519
9;519
10;515
11;507
12;498
13;493
14;490
15;491
0;495
1;497
2;500
3;504
4;509
5;512
6;516
7;519
8;520
9;521
10;521
11;518
12;513
13;506
14;497
15;493
0;492
1;497
2;505
3;512
4;518
5;526
6;537
7;540
8;536
9;533
10;527
11;518
12;510
13;506
14;500
15;495
0;491
1;490
2;488
3;493
4;498
5;507
6;512
7;516
8;523
9;525
10;527
11;526
12;523
13;518
14;514
15;511
0;508
1;509
2;507
3;505
4;507
5;512
6;518
7;526
8;531
9;531
10;532
11;533
12;531
13;530
14;529
15;524
0;519
1;517
2;513
3;509
4;508
5;513
6;520
7;530
8;532
9;531
10;529
11;528
12;527
13;521
14;515
15;512
0;510
1;505
2;497
3;492
4;491
5;498
6;509
7;515
8;512
9;506
10;503
11;498
12;494
13;489
14;484
15;480
0;479
1;480
2;480
3;471
4;467
5;473
6;478
7;484
8;490
9;496
10;501
11;504
12;505
13;509
14;509
15;506
0;504
1;502
2;502
3;501
4;497
5;497
6;498
7;505
8;514
9;517
10;518
11;518
12;518
13;518
14;515
15;511
0;505
1;501
2;495
3;488
4;485
5;488
6;493
7;499
8;509
9;517
10;522
11;525
12;526
13;524
14;521
15;517
0;512
1;508
2;506
3;499
4;495
5;495
6;497
7;499
8;505
9;510
10;513
11;519
12;523
13;526
14;526
15;527
0;527
1;526
2;527
3;524
4;518
5;512
6;511
7;515
8;521
9;520
10;522
11;527
12;533
13;535
14;536
15;543
0;547
1;550
2;552
3;558
4;562
5;571
6;581
7;594
8;607
9;621
10;633
11;644
12;653
13;662
14;663
15;660
0;659
1;649
2;631
3;608
4;591
5;574
6;558
7;548
8;540
9;528
10;509
11;489
12;468
13;448
14;430
15;413
0;400
1;391
2;388
3;385
4;383
5;383
6;383
7;387
8;398
9;407
10;413
11;418
12;419
13;421
14;434
15;451
0;462
1;465
2;466
3;463
4;455
5;453
6;453
7;452
8;456
9;462
10;470
11;480
12;490
13;502
14;512
15;518
0;525
1;534
2;537
3;537
4;531
5;519
6;510
7;499
8;492
9;489
10;489
11;490
12;500
13;512
14;520
15;529
0;538
1;541
2;539
3;539
4;539
5;533
6;525
7;518
8;510
9;504
10;502
11;502
12;502
13;506
14;512
15;520
0;528
1;531
2;531
3;532
4;531
5;529
6;525
7;521
8;520
9;520
10;519
11;521
12;519
13;519
14;525
15;533
0;538
1;545
2;551
3;552
4;550
5;542
6;532
7;522
8;514
9;512
10;510
11;511
12;517
13;520
14;526
15;534
0;538
1;545
2;549
3;545
4;535
5;530
6;531
7;531
8;531
9;531
10;530
11;528
12;528
13;531
14;535
15;540
0;543
1;546
2;551
3;554
4;555
5;553
6;549
7;545
8;540
9;536
10;534
11;531
12;531
13;532
14;532
15;534
0;540
1;547
2;554
3;560
4;565
5;569
6;572
7;572
8;567
9;556
10;545
11;534
12;526
13;524
14;524
15;526
0;535
1;543
2;551
3;562
4;563
5;557
6;554
7;556
8;560
9;561
10;555
11;547
12;538
13;530
14;527
15;525
0;520
1;520
2;524
3;530
4;540
5;554
6;561
7;560
8;557
9;554
10;549
11;543
12;538
13;535
14;536
15;537
0;538
1;539
2;544
3;548
4;550
5;551
6;550
7;548
8;547
9;545
10;542
11;539
12;534
13;531
14;528
15;527
0;527
1;526
2;526
3;529
4;533
5;535
6;533
7;533
8;536
9;537
10;536
11;530
12;522
13;515
14;509
15;505
0;505
1;508
2;508
3;512
4;517
5;519
6;521
7;521
8;521
9;519
10;519
11;518
12;511
13;502
14;494
15;488
0;482
1;480
2;479
3;481
4;493
5;503
6;510
7;515
8;518
9;518
10;514
11;509
12;503
13;500
14;499
15;499
0;500
1;505
2;501
3;485
4;472
5;455
6;446
7;450
8;456
9;462
10;467
11;469
12;471
13;468
14;461
15;454
0;444
1;436
2;436
3;441
4;448
5;455
6;462
7;469
8;477
9;482
10;482
11;482
12;484
13;487
14;491
15;493
0;487
1;482
2;478
3;476
4;476
5;478
6;483
7;488
8;491
9;494
10;497
11;499
12;499
13;497
14;494
15;489
0;483
1;481
2;480
3;483
4;484
5;486
6;490
7;498
8;506
9;511
10;513
11;513
12;512
13;511
14;510
15;505
0;500
1;494
2;487
3;484
4;484
5;486
6;488
7;496
8;502
9;505
10;507
11;511
12;511
13;510
14;510
15;510
0;508
1;505
2;504
3;498
4;489
5;486
6;485
7;480
8;476
9;476
10;479
11;479
12;481
13;484
14;487
15;492
0;494
1;487
2;481
3;477
4;472
5;469
6;472
7;471
8;476
9;487
10;497
11;505
12;510
13;515
14;515
15;512
0;508
1;502
2;497
3;493
4;490
5;488
6;486
7;482
8;483
9;489
10;496
11;498
12;501
13;506
14;508
15;508
0;507
1;506
2;502
3;497
4;494
5;492
6;492
7;495
8;497
9;500
10;504
11;508
12;511
13;513
14;514
15;514
0;514
1;512
2;508
3;503
4;500
5;497
6;492
7;488
8;488
9;492
10;502
11;512
12;522
13;531
14;534
15;534
0;528
1;521
2;513
3;507
4;503
5;504
6;507
7;513
8;517
9;523
10;528
11;528
12;520
13;513
14;507
15;501
0;499
1;494
2;494
3;496
4;493
5;490
6;491
7;491
8;490
9;491
10;493
11;496
12;503
13;510
14;515
15;523
0;530
1;531
2;531
3;529
4;527
5;522
6;519
7;517
8;515
9;513
10;514
11;515
12;515
13;519
14;525
15;531
0;537
1;543
2;540
3;537
4;532
5;526
6;520
7;513
8;506
9;504
10;504
11;508
12;508
13;510
14;512
15;515
0;519
1;522
2;523
3;521
4;520
5;519
6;515
7;510
8;504
9;496
10;489
11;487
12;488
13;490
14;492
15;496
0;502
1;509
2;515
3;517
4;515
5;513
6;512
7;507
8;504
9;502
10;499
11;500
12;502
13;498
14;497
15;498
0;503
1;507
2;514
3;524
4;532
5;534
6;531
7;524
8;514
9;511
10;508
11;508
12;506
13;502
14;494
15;489
0;490
1;487
2;486
3;486
4;489
5;491
6;491
7;487
8;479
9;473
10;473
11;474
12;474
13;476
14;480
15;484
0;489
1;494
2;500
3;507
4;513
5;519
6;518
7;514
8;512
9;510
10;509
11;507
12;504
13;504
14;505
15;508
0;509
1;514
2;521
3;527
4;532
5;535
6;536
7;536
8;536
9;534
10;532
11;533
12;535
13;537
14;542
15;548
0;556
1;566
2;579
3;592
4;605
5;619
6;631
7;639
8;644
9;648
10;652
11;656
12;656
13;648
14;639
15;628
0;617
1;610
2;609
3;603
4;586
5;569
6;558
7;543
8;524
9;504
10;481
11;452
12;423
13;397
14;379
15;368
0;363
1;361
2;362
3;373
4;387
5;399
6;409
7;420
8;427
9;432
10;436
11;439
12;441
13;446
14;447
15;446
0;449
1;452
2;455
3;460
4;466
5;475
6;484
7;495
8;506
9;514
10;522
11;519
12;508
13;496
14;485
15;483
0;486
1;495
2;501
3;496
4;489
5;494
6;506
7;514
8;519
9;521
10;519
11;519
12;516
13;513
14;504
15;496
0;493
1;494
2;499
3;502
4;505
5;510
6;516
7;524
8;529
9;532
10;534
11;535
12;533
13;530
14;526
15;524
0;522
1;519
2;514
3;515
4;516
5;517
6;521
7;526
8;530
9;534
10;536
11;537
12;539
13;538
14;536
15;531
0;526
1;519
2;518
3;519
4;519
5;519
6;519
7;523
8;528
9;531
10;537
11;542
12;544
13;543
14;544
15;543
0;539
1;535
2;530
3;524
4;519
5;518
6;521
7;527
8;528
9;528
10;527
11;524
12;520
13;519
14;521
15;521
0;518
1;516
2;519
3;524
4;526
5;526
6;526
7;527
8;524
9;524
10;530
11;534
12;537
13;541
14;539
15;528
0;518
1;514
2;514
3;516
4;517
5;518
6;518
7;514
8;509
9;509
10;514
11;521
12;527
13;529
14;529
15;531
0;531
1;528
2;525
3;521
4;517
5;516
6;519
7;519
8;522
9;528
10;536
11;542
12;548
13;556
14;557
15;554
0;554
1;555
2;553
3;550
4;549
5;542
6;530
7;528
8;528
9;527
10;531
11;536
12;537
13;536
14;537
15;536
0;535
1;540
2;541
3;538
4;533
5;527
6;526
7;524
8;526
9;527
10;528
11;532
12;537
13;541
14;543
15;542
0;539
1;536
2;534
3;531
4;527
5;526
6;521
7;515
8;510
9;509
10;510
11;513
12;518
13;523
14;524
15;527
0;528
1;527
2;526
3;524
4;518
5;511
6;509
7;507
8;505
9;504
10;502
11;502
12;504
13;506
14;505
15;507
0;509
1;510
2;511
3;509
4;504
5;499
6;497
7;496
8;498
9;501
10;505
11;506
12;503
13;502
14;497
15;489
0;487
1;491
2;489
3;486
4;490
5;496
6;494
7;487
8;481
9;478
10;477
11;476
12;475
13;475
14;475
15;479
0;484
1;489
2;487
3;485
4;486
5;485
6;484
7;481
8;477
9;472
10;471
11;475
12;481
13;485
14;491
15;500
0;507
1;511
2;513
3;511
4;507
5;504
6;498
7;490
8;484
9;480
10;479
11;478
12;479
13;480
14;483
15;489
0;493
1;494
2;499
3;503
4;507
5;510
6;509
7;505
8;502
9;499
10;495
11;491
12;492
13;493
14;494
15;501
0;508
1;511
2;513
3;517
4;520
5;522
6;521
7;519
8;508
9;501
10;488
11;476
12;470
13;470
14;474
15;481
0;487
1;495
2;504
3;510
4;514
5;514
6;514
7;516
8;508
9;493
10;484
11;480
12;479
13;482
14;487
15;490
0;493
1;495
2;500
3;506
4;510
5;511
6;511
7;510
8;509
9;507
10;505
11;504
12;503
13;500
14;501
15;505
0;506
1;508
2;514
3;516
4;516
5;513
6;513
7;511
8;512
9;512
10;508
11;500
12;495
13;489
14;488
15;491
0;496
1;500
2;505
3;514
4;515
5;516
6;519
7;517
8;517
9;518
10;516
11;508
12;498
13;493
14;492
15;491
0;494
1;494
2;496
3;504
4;511
5;517
6;526
7;529
8;528
9;520
10;517
11;516
12;512
13;505
14;501
15;499
0;499
1;504
2;513
3;523
4;533
5;542
6;543
7;536
8;518
9;501
10;501
11;504
12;501
13;499
14;499
15;500
0;504
1;507
2;511
3;508
4;507
5;506
6;511
7;520
8;526
9;529
10;531
11;530
12;525
13;519
14;514
15;513
0;514
1;512
2;507
3;505
4;505
5;512
6;521
7;527
8;533
9;538
10;540
11;542
12;542
13;538
14;533
15;526
0;521
1;516
2;512
3;511
4;511
5;512
6;517
7;523
8;528
9;535
10;539
11;540
12;539
13;537
14;531
15;524
0;516
1;506
2;499
3;499
4;499
5;501
6;507
7;510
8;507
9;499
10;496
11;499
12;500
13;498
14;499
15;502
0;503
1;503
2;495
3;488
4;491
5;492
6;493
7;496
8;501
9;507
10;512
11;512
12;515
13;515
14;514
15;512
0;514
1;516
2;513
3;507
4;499
5;490
6;482
7;481
8;488
9;495
10;497
11;494
12;492
13;493
14;496
15;499
0;500
1;497
2;496
3;492
4;492
5;494
6;496
7;497
8;503
9;508
10;510
11;514
12;519
13;522
14;523
15;523
0;519
1;513
2;510
3;506
4;502
5;500
6;500
7;501
8;503
9;508
10;516
11;524
12;532
13;536
14;539
15;534
0;532
1;529
2;523
3;519
4;519
5;519
6;521
7;525
8;531
9;538
10;544
11;551
12;559
13;569
14;578
15;586
0;598
1;608
2;618
3;624
4;628
5;630
6;630
7;631
8;638
9;645
10;651
11;657
12;657
13;647
14;630
15;615
0;599
1;588
2;576
3;560
4;543
5;524
6;498
7;470
8;447
9;425
10;406
11;393
12;387
13;384
14;383
15;388
0;390
1;392
2;395
3;399
4;402
5;407
6;411
7;411
8;414
9;420
10;429
11;439
12;447
13;456
14;464
15;474
0;482
1;484
2;485
3;489
4;487
5;484
6;482
7;484
8;486
9;487
10;489
11;492
12;497
13;503
14;510
15;515
0;522
1;527
2;530
3;529
4;528
5;524
6;518
7;511
8;505
9;502
10;502
11;502
12;505
13;512
14;520
15;525
0;528
1;531
2;532
3;526
4;527
5;530
6;528
7;526
8;519
9;509
10;499
11;496
12;499
13;504
14;509
15;508
0;509
1;514
2;521
3;526
4;529
5;530
6;525
7;516
8;512
9;511
10;508
11;510
12;515
13;515
14;513
15;514
0;519
1;521
2;525
3;528
4;528
5;531
6;531
7;530
8;525
9;521
10;515
11;511
12;512
13;514
14;516
15;523
0;529
1;529
2;531
3;531
4;532
5;530
6;525
7;522
8;520
9;517
10;514
11;511
12;507
13;507
14;508
15;510
0;515
1;523
2;529
3;537
4;541
5;540
6;535
7;527
8;518
9;512
10;514
11;515
12;513
13;511
14;512
15;514
0;518
1;530
2;537
3;536
4;532
5;526
6;522
7;522
8;516
9;512
10;513
11;511
12;509
13;507
14;508
15;510
0;511
1;515
2;521
3;527
4;531
5;536
6;540
7;542
8;544
9;541
10;539
11;540
12;537
13;527
14;519
15;514
0;508
1;506
2;513
3;521
4;528
5;535
6;539
7;542
8;542
9;542
10;537
11;533
12;531
13;523
14;518
15;518
0;517
1;515
2;516
3;524
4;533
5;541
6;546
7;546
8;543
9;538
10;534
11;529
12;523
13;518
14;514
15;512
0;511
1;511
2;509
3;509
4;512
5;515
6;517
7;518
8;518
9;519
10;520
11;516
12;508
13;503
14;498
15;494
0;493
1;495
2;498
3;499
4;500
5;502
6;502
7;502
8;509
9;513
10;511
11;500
12;485
13;476
14;468
15;463
0;462
1;464
2;464
3;462
4;460
5;465
6;472
7;479
8;485
9;489
10;490
11;489
12;488
13;483
14;473
15;467
0;463
1;462
2;461
3;464
4;467
5;469
6;474
7;481
8;486
9;489
10;492
11;493
12;492
13;489
14;483
15;477
0;474
1;472
2;469
3;468
4;469
5;472
6;480
7;487
8;491
9;492
10;494
11;494
12;494
13;496
14;495
15;489
0;486
1;484
2;482
3;481
4;481
5;480
6;481
7;482
8;489
9;496
10;500
11;500
12;503
13;506
14;499
15;489
0;481
1;477
2;475
3;475
4;473
5;473
6;476
7;475
8;482
9;488
10;490
11;492
12;497
13;499
14;495
15;487
0;479
1;473
2;471
3;467
4;468
5;477
6;482
7;481
8;482
9;486
10;489
11;493
12;497
13;501
14;501
15;500
0;499
1;501
2;502
3;503
4;502
5;495
6;490
7;488
8;482
9;473
10;462
11;460
12;470
13;479
14;483
15;487
0;491
1;493
2;491
3;490
4;487
5;484
6;483
7;484
8;484
9;485
10;491
11;498
12;506
13;512
14;513
15;511
0;510
1;508
2;505
3;499
4;497
5;494
6;491
7;490
8;492
9;494
10;499
11;506
12;511
13;516
14;520
15;520
0;519
1;523
2;523
3;517
4;512
5;508
6;504
7;502
8;504
9;504
10;504
11;508
12;514
13;519
14;524
15;527
0;528
1;529
2;527
3;524
4;517
5;507
6;498
7;494
8;491
9;488
10;488
11;494
12;502
13;508
14;516
15;521
0;523
1;517
2;510
3;506
4;502
5;496
6;492
7;488
8;487
9;487
10;490
11;491
12;495
13;502
14;507
15;514
0;525
1;537
2;545
3;546
4;541
5;527
6;516
7;509
8;505
9;502
10;502
11;504
12;506
13;511
14;518
15;522
0;528
1;535
2;539
3;542
4;545
5;540
6;527
7;513
8;506
9;506
10;509
11;511
12;515
13;520
14;522
15;525
0;529
1;531
2;527
3;523
4;524
5;523
6;519
7;514
8;511
9;507
10;503
11;502
12;502
13;501
14;504
15;509
0;515
1;521
2;527
3;528
4;526
5;522
6;515
7;511
8;505
9;501
10;498
11;499
12;499
13;499
14;502
15;506
0;511
1;513
2;514
3;513
4;513
5;516
6;514
7;510
8;505
9;501
10;497
11;494
12;490
13;490
14;491
15;496
0;504
1;513
2;512
3;513
4;514
5;515
6;518
7;521
8;524
9;521
10;513
11;493
12;472
13;462
14;462
15;469
0;479
1;492
2;502
3;510
4;512
5;514
6;513
7;511
8;511
9;506
10;494
11;484
12;478
13;478
14;485
15;496
0;504
1;509
2;510
3;506
4;503
5;504
6;507
7;508
8;507
9;504
10;501
11;498
12;494
13;492
14;493
15;497
0;499
1;502
2;507
3;514
4;522
5;530
6;537
7;538
8;537
9;536
10;535
11;534
12;536
13;538
14;543
15;550
0;559
1;568
2;580
3;594
4;609
5;622
6;634
7;645
8;652
9;657
10;662
11;663
12;664
13;661
14;653
15;645
0;638
1;632
2;622
3;613
4;605
5;597
6;586
7;573
8;556
9;534
10;513
11;492
12;464
13;432
14;408
15;393
0;381
1;370
2;364
3;367
4;374
5;382
6;392
7;403
8;413
9;418
10;419
11;421
12;423
13;424
14;427
15;428
0;427
1;431
2;438
3;445
4;453
5;464
6;473
7;483
8;494
9;502
10;505
11;504
12;501
13;497
14;497
15;499
0;500
1;500
2;499
3;495
4;492
5;495
6;504
7;510
8;516
9;526
10;530
11;528
12;517
13;509
14;507
15;505
0;503
1;503
2;508
3;515
4;524
5;534
6;547
7;552
8;537
9;515
10;506
11;500
12;499
13;502
14;499
15;495
0;497
1;496
2;492
3;490
4;492
5;496
6;499
7;505
8;512
9;519
10;525
11;530
12;530
13;532
14;531
15;526
0;522
1;518
2;515
3;514
4;514
5;515
6;516
7;520
8;526
9;533
10;536
11;541
12;550
13;547
14;540
15;533
0;524
1;516
2;512
3;510
4;510
5;512
6;516
7;521
8;524
9;530
10;536
11;541
12;547
13;544
14;538
15;532
0;525
1;517
2;511
3;507
4;504
5;504
6;509
7;516
8;523
9;530
10;539
11;543
12;545
13;544
14;543
15;542
0;541
1;536
2;531
3;531
4;524
5;519
6;522
7;525
8;529
9;532
10;537
11;544
12;551
13;554
14;555
15;557
0;562
1;555
2;543
3;539
4;535
5;529
6;530
7;532
8;538
9;544
10;551
11;555
12;550
13;537
14;527
15;521
0;517
1;515
2;516
3;521
4;527
5;528
6;527
7;526
8;524
9;524
10;525
11;530
12;538
13;543
14;545
15;549
0;551
1;550
2;549
3;548
4;543
5;540
6;537
7;533
8;530
9;530
10;530
11;531
12;535
13;537
14;540
15;545
0;548
1;547
2;548
3;545
4;537
5;530
6;525
7;520
8;517
9;517
10;518
11;521
12;529
13;531
14;530
15;531
0;531
1;532
2;532
3;530
4;529
5;521
6;504
7;494
8;489
9;490
10;490
11;488
12;489
13;496
14;504
15;509
0;515
1;515
2;510
3;503
4;498
5;496
6;490
7;483
8;475
9;467
10;464
11;464
12;465
13;466
14;471
15;480
0;486
1;491
2;493
3;494
4;496
5;495
6;490
7;484
8;480
9;477
10;476
11;478
12;480
13;481
14;483
15;487
0;491
1;495
2;498
3;500
4;502
5;499
6;496
7;493
8;488
9;482
10;477
11;478
12;479
13;482
14;486
15;492
0;496
1;497
2;501
3;504
4;504
5;504
6;503
7;500
8;495
9;491
10;488
11;483
12;481
13;485
14;489
15;493
0;497
1;506
2;511
3;512
4;511
5;508
6;505
7;507
8;512
9;515
10;516
11;513
12;504
13;489
14;473
15;468
0;467
1;471
2;477
3;481
4;483
5;483
6;482
7;477
8;476
9;480
10;486
11;485
12;482
13;483
14;486
15;490
0;493
1;497
2;505
3;511
4;514
5;516
6;517
7;518
8;518
9;516
10;514
11;511
12;507
13;504
14;504
15;503
0;502
1;504
2;507
3;510
4;514
5;518
6;521
7;522
8;522
9;519
10;515
11;513
12;510
13;509
14;510
15;513
0;519
1;523
2;525
3;529
4;527
5;527
6;524
7;519
8;516
9;518
10;516
11;513
12;509
13;507
14;505
15;504
0;510
1;515
2;520
3;525
4;524
5;512
6;504
7;499
8;501
9;513
10;520
11;523
12;524
13;523
14;519
15;514
0;512
1;512
2;511
3;511
4;514
5;517
6;521
7;526
8;529
9;527
10;526
11;524
12;523
13;521
14;518
15;512
0;508
1;511
2;512
3;510
4;514
5;518
6;521
7;527
8;531
9;532
10;532
11;530
12;526
13;517
14;511
15;509
0;511
1;515
2;523
3;530
4;534
5;533
6;522
7;502
8;488
9;485
10;487
11;489
12;492
13;494
14;496
15;498
0;499
1;500
2;502
3;507
4;510
5;512
6;520
7;531
8;542
9;547
10;550
11;536
12;519
13;507
14;496
15;489
0;492
1;497
2;502
3;507
4;513
5;518
6;523
7;528
8;532
9;535
10;540
11;542
12;542
13;541
14;539
15;534
0;530
1;529
2;527
3;525
4;526
5;527
6;529
7;534
8;539
9;539
10;540
11;541
12;539
13;535
14;531
15;529
0;525
1;519
2;513
3;511
4;508
5;509
6;512
7;513
8;511
9;508
10;508
11;509
12;519
13;524
14;524
15;524
0;518
1;510
2;499
3;492
4;489
5;490
6;493
7;496
8;498
9;502
10;510
11;518
12;526
13;535
14;542
15;541
0;525
1;504
2;487
3;474
4;466
5;465
6;469
7;473
8;477
9;485
10;496
11;502
12;507
13;511
14;513
15;512
0;510
1;505
2;502
3;502
4;503
5;502
6;501
7;501
8;502
9;504
10;510
11;515
12;518
13;524
14;526
15;526
0;524
1;519
2;512
3;504
4;501
5;500
6;499
7;498
8;496
9;494
10;501
11;510
12;514
13;519
14;522
15;528
0;527
1;524
2;519
3;514
4;511
5;505
6;502
7;500
8;499
9;500
10;503
11;511
12;522
13;532
14;541
15;550
0;557
1;563
2;568
3;571
4;572
5;575
6;581
7;591
8;601
9;613
10;627
11;639
12;648
13;657
14;664
15;672
0;674
1;674
2;670
3;663
4;650
5;634
6;618
7;602
8;587
9;570
10;553
11;536
12;518
13;501
14;481
15;459
0;441
1;423
2;407
3;395
4;379
5;370
6;367
7;374
8;388
9;403
10;417
11;428
12;416
13;385
14;368
15;374
0;389
1;405
2;422
3;432
4;442
5;449
6;451
7;449
8;447
9;448
10;450
11;455
12;463
13;470
14;478
15;484
0;491
1;496
2;502
3;507
4;510
5;513
6;513
7;511
8;509
9;506
10;503
11;499
12;502
13;504
14;508
15;511
0;514
1;517
2;521
3;522
4;523
5;522
6;519
7;515
8;512
9;510
10;506
11;506
12;508
13;511
14;514
15;521
0;529
1;535
2;541
3;545
4;544
5;543
6;539
7;536
8;532
9;528
10;525
11;521
12;519
13;520
14;521
15;525
0;523
1;528
2;529
3;533
4;537
5;540
6;542
7;542
8;537
9;527
10;521
11;518
12;514
13;512
14;513
15;514
0;518
1;524
2;527
3;529
4;534
5;536
6;537
7;540
8;536
9;532
10;528
11;525
12;523
13;518
14;517
15;524
0;521
1;523
2;528
3;532
4;531
5;531
6;532
7;536
8;544
9;552
10;556
11;558
12;555
13;533
14;508
15;488
0;480
1;482
2;492
3;501
4;511
5;516
6;520
7;526
8;529
9;530
10;527
11;523
12;522
13;521
14;522
15;524
0;526
1;528
2;533
3;539
4;546
5;552
6;557
7;557
8;557
9;558
10;558
11;555
12;553
13;553
14;550
15;547
0;544
1;542
2;537
3;535
4;537
5;540
6;543
7;549
8;552
9;553
10;551
11;549
12;545
13;544
14;543
15;542
0;541
1;544
2;546
3;548
4;551
5;554
6;558
7;561
8;565
9;569
10;563
11;562
12;559
13;557
14;547
15;538
0;538
1;534
2;532
3;533
4;533
5;535
6;536
7;535
8;531
9;529
10;527
11;528
12;528
13;524
14;518
15;512
0;503
1;497
2;497
3;505
4;516
5;526
6;535
7;538
8;530
9;518
10;506
11;496
12;493
13;492
14;487
15;478
0;470
1;465
2;465
3;469
4;474
5;479
6;486
7;490
8;493
9;498
10;501
11;499
12;496
13;495
14;492
15;488
0;484
1;481
2;479
3;478
4;479
5;480
6;484
7;489
8;491
9;496
10;500
11;502
12;502
13;500
14;497
15;491
0;483
1;479
2;477
3;475
4;477
5;480
6;486
7;493
8;497
9;500
10;498
11;496
12;492
13;491
14;489
15;489
0;487
1;484
2;481
3;479
4;477
5;475
6;475
7;478
8;486
9;497
10;507
11;505
12;499
13;496
14;491
15;481
0;473
1;471
2;470
3;468
4;466
5;468
6;471
7;470
8;472
9;479
10;486
11;489
12;493
13;498
14;502
15;502
0;498
1;491
2;484
3;482
4;485
5;485
6;486
7;490
8;494
9;489
10;484
11;483
12;485
13;492
14;502
15;508
0;508
1;504
2;498
3;493
4;488
5;480
6;477
7;478
8;480
9;482
10;494
11;500
12;506
13;514
14;518
15;514
0;504
1;495
2;491
3;485
4;482
5;479
6;477
7;476
8;478
9;481
10;486
11;492
12;498
13;502
14;505
15;508
0;510
1;512
2;509
3;506
4;503
5;501
6;497
7;493
8;491
9;492
10;496
11;499
12;504
13;508
14;513
15;514
0;513
1;513
2;517
3;519
4;519
5;512
6;507
7;496
8;485
9;483
10;480
11;476
12;480
13;486
14;492
15;500
0;507
1;509
2;504
3;497
4;490
5;483
6;483
7;487
8;491
9;493
10;496
11;496
12;491
13;490
14;496
15;502
0;505
1;509
2;508
3;508
4;508
5;505
6;500
7;496
8;494
9;493
10;494
11;496
12;498
13;502
14;508
15;512
0;517
1;520
2;523
3;522
4;516
5;512
6;507
7;504
8;503
9;502
10;500
11;502
12;504
13;505
14;508
15;514
0;518
1;519
2;518
3;518
4;520
5;517
6;514
7;511
8;507
9;504
10;500
11;499
12;503
13;508
14;517
15;527
0;540
1;543
2;543
3;539
4;529
5;519
6;509
7;497
8;491
9;494
10;491
11;485
12;485
13;490
14;492
15;495
0;500
1;498
2;494
3;496
4;499
5;508
6;515
7;519
8;519
9;519
10;518
11;512
12;508
13;503
14;499
15;500
0;506
1;512
2;516
3;523
4;530
5;534
6;534
7;531
8;525
9;518
10;510
11;505
12;504
13;502
14;504
15;505
0;508
1;510
2;514
3;516
4;518
5;521
6;519
7;516
8;512
9;506
10;501
11;500
12;501
13;497
14;494
15;493
0;495
1;501
2;508
3;513
4;518
5;522
6;526
7;524
8;520
9;515
10;509
11;499
12;493
13;491
14;491
15;489
0;495
1;495
2;502
3;508
4;514
5;515
6;521
7;521
8;520
9;519
10;518
11;514
12;512
13;506
14;496
15;485
0;480
1;480
2;480
3;489
4;499
5;504
6;510
7;515
8;517
9;515
10;515
11;512
12;509
13;508
14;506
15;502
0;501
1;502
2;503
3;505
4;511
5;515
6;520
7;522
8;520
9;519
10;519
11;517
12;514
13;512
14;508
15;507
0;510
1;519
2;527
3;531
4;531
5;531
6;524
7;517
8;517
9;518
10;521
11;524
12;526
13;524
14;527
15;536
0;545
1;554
2;565
3;579
4;596
5;613
6;630
7;647
8;656
9;662
10;668
11;674
12;673
13;668
14;662
15;654
0;643
1;632
2;620
3;609
4;595
5;580
6;567
7;552
8;536
9;518
10;494
11;467
12;441
13;418
14;400
15;384
0;371
1;364
2;361
3;367
4;374
5;379
6;387
7;397
8;407
9;423
10;433
11;443
12;448
13;448
14;443
15;428
0;414
1;412
2;417
3;423
4;433
5;444
6;455
7;468
8;478
9;487
10;501
11;508
12;506
13;503
14;505
15;503
0;491
1;476
2;466
3;462
4;464
5;472
6;479
7;486
8;494
9;501
10;508
11;515
12;519
13;522
14;522
15;521
0;515
1;508
2;504
3;501
4;499
5;500
6;504
7;508
8;512
9;517
10;523
11;525
12;528
13;530
14;531
15;529
0;525
1;520
2;516
3;514
4;511
5;511
6;513
7;514
8;514
9;518
10;524
11;530
12;532
13;535
14;539
15;538
0;538
1;534
2;531
3;526
4;516
5;511
6;511
7;513
8;512
9;513
10;519
11;526
12;531
13;535
14;541
15;543
0;541
1;535
2;532
3;529
4;524
5;517
6;507
7;499
8;499
9;504
10;509
11;517
12;524
13;527
14;529
15;531
0;531
1;525
2;521
3;514
4;508
5;506
6;505
7;506
8;508
9;510
10;514
11;523
12;530
13;536
14;542
15;548
0;556
1;561
2;561
3;555
4;542
5;530
6;520
7;514
8;514
9;517
10;519
11;524
12;531
13;537
14;542
15;547
0;550
1;552
2;551
3;551
4;548
5;543
6;539
7;534
8;534
9;533
10;535
11;537
12;543
13;550
14;553
15;558
0;563
1;565
2;564
3;561
4;559
5;556
6;553
7;549
8;545
9;542
10;541
11;541
12;542
13;548
14;561
15;570
0;574
1;576
2;578
3;576
4;574
5;572
6;565
7;555
8;541
9;525
10;512
11;502
12;496
13;499
14;509
15;515
0;520
1;526
2;534
3;540
4;542
5;538
6;529
7;522
8;515
9;513
10;515
11;513
12;513
13;512
14;512
15;514
0;515
1;520
2;527
3;527
4;525
5;522
6;518
7;512
8;507
9;502
10;499
11;495
12;495
13;498
14;499
15;502
0;502
1;502
2;509
3;511
4;510
5;508
6;506
7;503
8;501
9;494
10;489
11;484
12;481
13;480
14;482
15;484
0;489
1;495
2;499
3;507
4;514
5;519
6;520
7;511
8;483
9;449
10;432
11;430
12;433
13;440
14;449
15;456
0;462
1;470
2;477
3;481
4;487
5;489
6;490
7;490
8;488
9;485
10;482
11;477
12;472
13;472
14;476
15;480
0;482
1;486
2;491
3;495
4;501
5;502
6;496
7;493
8;494
9;491
10;488
11;488
12;485
13;479
14;477
15;479
0;479
1;481
2;487
3;490
4;491
5;498
6;500
7;502
8;505
9;504
10;497
11;490
12;481
13;477
14;478
15;478
0;480
1;482
2;483
3;486
4;491
5;496
6;502
7;508
8;511
9;505
10;499
11;491
12;481
13;475
14;473
15;475
0;480
1;484
2;489
3;495
4;501
5;504
6;507
7;512
8;515
9;515
10;515
11;512
12;507
13;499
14;497
15;497
0;498
1;496
2;496
3;495
4;496
5;504
6;513
7;521
8;530
9;535
10;542
11;543
12;538
13;528
14;507
15;479
0;454
1;440
2;440
3;441
4;449
5;457
6;471
7;485
8;499
9;508
10;512
11;513
12;513
13;508
14;504
15;501
0;497
1;495
2;497
3;500
4;504
5;507
6;512
7;516
8;519
9;526
10;530
11;531
12;530
13;527
14;523
15;517
0;512
1;508
2;504
3;505
4;506
5;509
6;512
7;515
8;520
9;526
10;529
11;526
12;523
13;519
14;514
15;509
0;507
1;505
2;504
3;505
4;509
5;510
6;512
7;516
8;517
9;519
10;520
11;521
12;520
13;517
14;513
15;508
0;503
1;500
2;497
3;497
4;500
5;506
6;511
7;518
8;526
9;531
10;534
11;535
12;529
13;520
14;520
15;529
0;532
1;526
2;501
3;483
4;486
5;497
6;506
7;505
8;498
9;495
10;491
11;490
12;495
13;499
14;503
15;502
0;493
1;486
2;486
3;487
4;489
5;493
6;496
7;499
8;504
9;512
10;519
11;520
12;520
13;520
14;520
15;519
0;519
1;518
2;515
3;514
4;510
5;508
6;508
7;512
8;513
9;516
10;522
11;524
12;527
13;532
14;535
15;537
0;539
1;536
2;529
3;523
4;521
5;519
6;517
7;519
8;519
9;518
10;520
11;525
12;529
13;531
14;533
15;531
0;530
1;529
2;525
3;518
4;511
5;503
6;498
7;496
8;501
9;499
10;499
11;503
12;507
13;508
14;512
15;518
0;515
1;515
2;513
3;510
4;506
5;504
6;503
7;503
8;500
9;496
10;492
11;495
12;499
13;504
14;508
15;513
0;517
1;519
2;519
3;519
4;512
5;507
6;503
7;498
8;495
9;494
10;496
11;505
12;523
13;543
14;549
15;547
0;527
1;498
2;480
3;478
4;479
5;479
6;479
7;475
8;473
9;476
10;481
11;481
12;482
13;487
14;493
15;498
0;504
1;508
2;506
3;509
4;507
5;501
6;495
7;493
8;493
9;493
10;494
11;496
12;499
13;504
14;511
15;514
0;516
1;519
2;523
3;522
4;516
5;508
6;502
7;498
8;495
9;494
10;497
11;499
12;501
13;504
14;511
15;518
0;524
1;530
2;536
3;543
4;547
5;553
6;557
7;558
8;563
9;569
10;576
11;587
12;600
13;617
14;634
15;649
0;662
1;668
2;676
3;682
4;682
5;682
6;675
7;665
8;647
9;631
10;615
11;598
12;586
13;573
14;559
15;541
0;524
1;508
2;488
3;467
4;446
5;423
6;405
7;390
8;375
9;369
10;371
11;376
12;386
13;393
14;397
15;402
0;401
1;395
2;391
3;392
4;400
5;403
6;409
7;418
8;423
9;426
10;431
11;433
12;434
13;438
14;446
15;451
0;456
1;464
2;468
3;473
4;482
5;489
6;493
7;497
8;499
9;495
10;488
11;486
12;483
13;482
14;484
15;486
0;489
1;496
2;504
3;509
4;511
5;513
6;514
7;513
8;515
9;515
10;512
11;507
12;502
13;497
14;495
15;494
0;498
1;506
2;516
3;524
4;528
5;532
6;536
7;535
8;528
9;524
10;519
11;511
12;505
13;499
14;496
15;496
0;495
1;494
2;497
3;506
4;513
5;520
6;527
7;529
8;530
9;531
10;526
11;522
12;523
13;521
14;507
15;496
0;491
1;483
2;481
3;486
4;494
5;504
6;512
7;521
8;526
9;529
10;530
11;530
12;523
13;513
14;503
15;496
0;500
