0;489
1.0;496.0
2.0;501.0
3.0;505.0
4.0;505.0
5.0;507.0
6.0;506.0
7.0;503.0
8.0;495.0
9.0;493.0
10.0;491.0
11.0;486.0
12.0;480.0
13.0;477.0
14.0;478.0
15.0;477.0
0.0;478.0
1.0;483.0
2.0;492.0
3.0;495.0
4.0;499.0
5.0;499.0
6.0;498.0
7.0;498.0
8.0;495.0
9.0;487.0
10.0;482.0
11.0;483.0
12.0;486.0
13.0;485.0
14.0;484.0
15.0;484.0
0.0;488.0
1.0;494.0
2.0;500.0
3.0;504.0
4.0;507.0
5.0;510.0
6.0;508.0
7.0;507.0
8.0;505.0
9.0;503.0
10.0;497.0
11.0;493.0
12.0;488.0
13.0;485.0
14.0;489.0
15.0;492.0
0.0;491.0
1.0;493.0
2.0;495.0
3.0;498.0
4.0;505.0
5.0;509.0
6.0;512.0
7.0;511.0
8.0;509.0
9.0;507.0
10.0;504.0
11.0;498.0
12.0;495.0
13.0;493.0
14.0;499.0
15.0;502.0
0.0;502.0
1.0;500.0
2.0;503.0
3.0;510.0
4.0;516.0
5.0;520.0
6.0;521.0
7.0;518.0
8.0;515.0
9.0;513.0
10.0;511.0
11.0;508.0
12.0;507.0
13.0;503.0
14.0;497.0
15.0;496.0
0.0;498.0
1.0;498.0
2.0;498.0
3.0;505.0
4.0;516.0
5.0;522.0
6.0;527.0
7.0;527.0
8.0;524.0
9.0;521.0
10.0;518.0
11.0;514.0
12.0;509.0
13.0;508.0
14.0;507.0
15.0;505.0
0.0;508.0
1.0;507.0
2.0;504.0
3.0;507.0
4.0;514.0
5.0;520.0
6.0;524.0
7.0;526.0
8.0;526.0
9.0;523.0
10.0;521.0
11.0;516.0
12.0;508.0
13.0;502.0
14.0;498.0
15.0;495.0
0.0;495.0
1.0;497.0
2.0;499.0
3.0;501.0
4.0;504.0
5.0;508.0
6.0;511.0
7.0;514.0
8.0;517.0
9.0;516.0
10.0;515.0
11.0;514.0
12.0;511.0
13.0;505.0
14.0;499.0
15.0;495.0
0.0;495.0
1.0;497.0
2.0;498.0
3.0;501.0
4.0;504.0
5.0;508.0
6.0;512.0
7.0;513.0
8.0;517.0
9.0;518.0
10.0;516.0
11.0;517.0
12.0;512.0
13.0;507.0
14.0;508.0
15.0;506.0
0.0;502.0
1.0;501.0
2.0;503.0
3.0;505.0
4.0;505.0
5.0;507.0
6.0;509.0
7.0;513.0
8.0;519.0
9.0;524.0
10.0;526.0
11.0;522.0
12.0;520.0
13.0;517.0
14.0;511.0
15.0;507.0
0.0;502.0
1.0;496.0
2.0;494.0
3.0;491.0
4.0;494.0
5.0;496.0
6.0;501.0
7.0;505.0
8.0;508.0
9.0;514.0
10.0;518.0
11.0;518.0
12.0;519.0
13.0;519.0
14.0;517.0
15.0;513.0
0.0;509.0
1.0;508.0
2.0;507.0
3.0;508.0
4.0;506.0
5.0;505.0
6.0;508.0
7.0;514.0
8.0;521.0
9.0;527.0
10.0;534.0
11.0;536.0
12.0;536.0
13.0;533.0
14.0;528.0
15.0;525.0
0.0;523.0
1.0;520.0
2.0;519.0
3.0;519.0
4.0;520.0
5.0;523.0
6.0;523.0
7.0;526.0
8.0;529.0
9.0;530.0
10.0;532.0
11.0;534.0
12.0;534.0
13.0;535.0
14.0;535.0
15.0;531.0
0.0;523.0
1.0;519.0
2.0;517.0
3.0;515.0
4.0;514.0
5.0;515.0
6.0;513.0
7.0;512.0
8.0;515.0
9.0;519.0
10.0;520.0
11.0;526.0
12.0;536.0
13.0;544.0
14.0;550.0
15.0;553.0
0.0;552.0
1.0;549.0
2.0;545.0
3.0;545.0
4.0;543.0
5.0;541.0
6.0;540.0
7.0;543.0
8.0;546.0
9.0;551.0
10.0;555.0
11.0;557.0
12.0;557.0
13.0;565.0
14.0;563.0
15.0;560.0
0.0;555.0
1.0;548.0
2.0;542.0
3.0;539.0
4.0;531.0
5.0;527.0
6.0;527.0
7.0;520.0
8.0;514.0
9.0;518.0
10.0;524.0
11.0;530.0
12.0;536.0
13.0;538.0
14.0;539.0
15.0;538.0
0.0;537.0
1.0;536.0
2.0;531.0
3.0;526.0
4.0;519.0
5.0;511.0
6.0;505.0
7.0;503.0
8.0;503.0
9.0;503.0
10.0;507.0
11.0;512.0
12.0;516.0
13.0;520.0
14.0;523.0
15.0;523.0
0.0;521.0
1.0;518.0
2.0;513.0
3.0;506.0
4.0;500.0
5.0;493.0
6.0;487.0
7.0;484.0
8.0;485.0
9.0;488.0
10.0;493.0
11.0;496.0
12.0;499.0
13.0;503.0
14.0;506.0
15.0;508.0
0.0;508.0
1.0;510.0
2.0;509.0
3.0;505.0
4.0;499.0
5.0;496.0
6.0;493.0
7.0;494.0
8.0;496.0
9.0;497.0
10.0;498.0
11.0;499.0
12.0;502.0
13.0;506.0
14.0;513.0
15.0;517.0
0.0;517.0
1.0;516.0
2.0;517.0
3.0;517.0
4.0;514.0
5.0;509.0
6.0;504.0
7.0;502.0
8.0;499.0
9.0;501.0
10.0;503.0
11.0;504.0
12.0;505.0
13.0;507.0
14.0;508.0
15.0;515.0
0.0;518.0
1.0;518.0
2.0;518.0
3.0;517.0
4.0;516.0
5.0;512.0
6.0;507.0
7.0;505.0
8.0;503.0
9.0;503.0
10.0;501.0
11.0;509.0
12.0;512.0
13.0;512.0
14.0;512.0
15.0;514.0
0.0;520.0
1.0;523.0
2.0;523.0
3.0;525.0
4.0;524.0
5.0;518.0
6.0;512.0
7.0;511.0
8.0;511.0
9.0;509.0
10.0;508.0
11.0;507.0
12.0;504.0
13.0;507.0
14.0;512.0
15.0;521.0
0.0;531.0
1.0;540.0
2.0;545.0
3.0;549.0
4.0;558.0
5.0;566.0
6.0;573.0
7.0;583.0
8.0;597.0
9.0;611.0
10.0;628.0
11.0;650.0
12.0;671.0
13.0;696.0
14.0;729.0
15.0;754.0
0.0;771.0
1.0;791.0
2.0;808.0
3.0;828.0
4.0;844.0
5.0;854.0
6.0;858.0
7.0;853.0
8.0;843.0
9.0;822.0
10.0;791.0
11.0;761.0
12.0;729.0
13.0;697.0
14.0;665.0
15.0;629.0
0.0;593.0
1.0;559.0
2.0;527.0
3.0;495.0
4.0;459.0
5.0;430.0
6.0;409.0
7.0;392.0
8.0;379.0
9.0;366.0
10.0;357.0
11.0;351.0
12.0;347.0
13.0;345.0
14.0;348.0
15.0;355.0
0.0;364.0
1.0;372.0
2.0;381.0
3.0;391.0
4.0;399.0
5.0;404.0
6.0;411.0
7.0;413.0
8.0;411.0
9.0;413.0
10.0;411.0
11.0;411.0
12.0;412.0
13.0;418.0
14.0;423.0
15.0;428.0
0.0;437.0
1.0;444.0
2.0;450.0
3.0;459.0
4.0;467.0
5.0;480.0
6.0;488.0
7.0;496.0
8.0;497.0
9.0;491.0
10.0;487.0
11.0;486.0
12.0;483.0
13.0;484.0
14.0;484.0
15.0;482.0
0.0;484.0
1.0;489.0
2.0;492.0
3.0;494.0
4.0;496.0
5.0;499.0
6.0;499.0
7.0;499.0
8.0;499.0
9.0;495.0
10.0;490.0
11.0;493.0
12.0;494.0
13.0;493.0
14.0;492.0
15.0;494.0
0.0;500.0
1.0;505.0
2.0;509.0
3.0;512.0
4.0;515.0
5.0;515.0
6.0;515.0
7.0;514.0
8.0;514.0
9.0;514.0
10.0;511.0
11.0;510.0
12.0;508.0
13.0;504.0
14.0;504.0
15.0;508.0
0.0;512.0
1.0;517.0
2.0;521.0
3.0;527.0
4.0;531.0
5.0;535.0
6.0;537.0
7.0;537.0
8.0;537.0
9.0;537.0
10.0;537.0
11.0;529.0
12.0;520.0
13.0;519.0
14.0;515.0
15.0;515.0
0.0;519.0
1.0;524.0
2.0;528.0
3.0;532.0
4.0;535.0
5.0;539.0
6.0;544.0
7.0;547.0
8.0;546.0
9.0;545.0
10.0;539.0
11.0;532.0
12.0;527.0
13.0;523.0
14.0;520.0
15.0;518.0
0.0;516.0
1.0;513.0
2.0;514.0
3.0;519.0
4.0;524.0
5.0;528.0
6.0;533.0
7.0;538.0
8.0;542.0
9.0;543.0
10.0;542.0
11.0;542.0
12.0;538.0
13.0;536.0
14.0;530.0
15.0;525.0
0.0;525.0
1.0;525.0
2.0;526.0
3.0;526.0
4.0;531.0
5.0;538.0
6.0;544.0
7.0;551.0
8.0;556.0
9.0;553.0
10.0;547.0
11.0;544.0
12.0;540.0
13.0;537.0
14.0;534.0
15.0;531.0
0.0;527.0
1.0;530.0
2.0;533.0
3.0;536.0
4.0;540.0
5.0;545.0
6.0;546.0
7.0;549.0
8.0;552.0
9.0;556.0
10.0;557.0
11.0;557.0
12.0;556.0
13.0;552.0
14.0;547.0
15.0;541.0
0.0;538.0
1.0;538.0
2.0;540.0
3.0;540.0
4.0;538.0
5.0;542.0
6.0;551.0
7.0;555.0
8.0;560.0
9.0;564.0
10.0;568.0
11.0;569.0
12.0;572.0
13.0;573.0
14.0;568.0
15.0;564.0
0.0;560.0
1.0;557.0
2.0;556.0
3.0;557.0
4.0;559.0
5.0;561.0
6.0;566.0
7.0;573.0
8.0;576.0
9.0;580.0
10.0;583.0
11.0;584.0
12.0;586.0
13.0;585.0
14.0;583.0
15.0;577.0
0.0;572.0
1.0;570.0
2.0;568.0
3.0;566.0
4.0;563.0
5.0;561.0
6.0;560.0
7.0;561.0
8.0;562.0
9.0;563.0
10.0;563.0
11.0;564.0
12.0;560.0
13.0;557.0
14.0;552.0
15.0;547.0
0.0;539.0
1.0;534.0
2.0;534.0
3.0;533.0
4.0;530.0
5.0;528.0
6.0;527.0
7.0;528.0
8.0;530.0
9.0;530.0
10.0;524.0
11.0;527.0
12.0;539.0
13.0;542.0
14.0;542.0
15.0;537.0
0.0;529.0
1.0;526.0
2.0;518.0
3.0;509.0
4.0;504.0
5.0;502.0
6.0;501.0
7.0;501.0
8.0;504.0
9.0;506.0
10.0;507.0
11.0;510.0
12.0;508.0
13.0;509.0
14.0;508.0
15.0;503.0
0.0;500.0
1.0;495.0
2.0;490.0
3.0;486.0
4.0;485.0
5.0;484.0
6.0;484.0
7.0;483.0
8.0;486.0
9.0;486.0
10.0;490.0
11.0;494.0
12.0;497.0
13.0;503.0
14.0;504.0
15.0;500.0
0.0;494.0
1.0;488.0
2.0;481.0
3.0;474.0
4.0;470.0
5.0;470.0
6.0;471.0
7.0;469.0
8.0;468.0
9.0;470.0
10.0;475.0
11.0;478.0
12.0;482.0
13.0;487.0
14.0;488.0
15.0;487.0
0.0;483.0
1.0;479.0
2.0;472.0
3.0;468.0
4.0;464.0
5.0;460.0
6.0;456.0
7.0;456.0
8.0;457.0
9.0;456.0
10.0;459.0
11.0;464.0
12.0;469.0
13.0;475.0
14.0;476.0
15.0;475.0
0.0;473.0
1.0;473.0
2.0;472.0
3.0;470.0
4.0;469.0
5.0;468.0
6.0;467.0
7.0;468.0
8.0;467.0
9.0;465.0
10.0;468.0
11.0;473.0
12.0;477.0
13.0;479.0
14.0;483.0
15.0;486.0
0.0;485.0
1.0;484.0
2.0;482.0
3.0;479.0
4.0;473.0
5.0;470.0
6.0;468.0
7.0;467.0
8.0;468.0
9.0;474.0
10.0;477.0
11.0;481.0
12.0;489.0
13.0;495.0
14.0;503.0
15.0;508.0
0.0;510.0
1.0;509.0
2.0;508.0
3.0;504.0
4.0;497.0
5.0;492.0
6.0;487.0
7.0;484.0
8.0;481.0
9.0;479.0
10.0;476.0
11.0;474.0
12.0;476.0
13.0;484.0
14.0;491.0
15.0;499.0
0.0;503.0
1.0;500.0
2.0;497.0
3.0;492.0
4.0;489.0
5.0;490.0
6.0;493.0
7.0;492.0
8.0;490.0
9.0;490.0
10.0;491.0
11.0;494.0
12.0;494.0
13.0;495.0
14.0;498.0
15.0;505.0
0.0;513.0
1.0;518.0
2.0;515.0
3.0;513.0
4.0;511.0
5.0;506.0
6.0;502.0
7.0;500.0
8.0;501.0
9.0;499.0
10.0;499.0
11.0;499.0
12.0;500.0
13.0;505.0
14.0;511.0
15.0;513.0
0.0;518.0
1.0;523.0
2.0;524.0
3.0;525.0
4.0;522.0
5.0;518.0
6.0;514.0
7.0;513.0
8.0;511.0
9.0;507.0
10.0;507.0
11.0;506.0
12.0;504.0
13.0;506.0
14.0;514.0
15.0;518.0
0.0;519.0
1.0;522.0
2.0;525.0
3.0;524.0
4.0;522.0
5.0;522.0
6.0;521.0
7.0;521.0
8.0;519.0
9.0;519.0
10.0;519.0
11.0;519.0
12.0;518.0
13.0;519.0
14.0;522.0
15.0;528.0
0.0;532.0
1.0;532.0
2.0;534.0
3.0;537.0
4.0;534.0
5.0;532.0
6.0;530.0
7.0;525.0
8.0;519.0
9.0;517.0
10.0;514.0
11.0;512.0
12.0;512.0
13.0;511.0
14.0;511.0
15.0;514.0
0.0;515.0
1.0;517.0
2.0;523.0
3.0;526.0
4.0;530.0
5.0;532.0
6.0;532.0
7.0;528.0
8.0;523.0
9.0;522.0
10.0;517.0
11.0;513.0
12.0;510.0
13.0;508.0
14.0;508.0
15.0;509.0
0.0;509.0
1.0;513.0
2.0;518.0
3.0;525.0
4.0;528.0
5.0;527.0
6.0;525.0
7.0;522.0
8.0;517.0
9.0;515.0
10.0;514.0
11.0;512.0
12.0;509.0
13.0;508.0
14.0;507.0
15.0;509.0
0.0;511.0
1.0;514.0
2.0;519.0
3.0;522.0
4.0;523.0
5.0;524.0
6.0;522.0
7.0;526.0
8.0;525.0
9.0;524.0
10.0;520.0
11.0;519.0
12.0;519.0
13.0;518.0
14.0;515.0
15.0;513.0
0.0;514.0
1.0;515.0
2.0;519.0
3.0;525.0
4.0;531.0
5.0;537.0
6.0;542.0
7.0;544.0
8.0;548.0
9.0;551.0
10.0;543.0
11.0;536.0
12.0;529.0
13.0;522.0
14.0;519.0
15.0;516.0
0.0;519.0
1.0;523.0
2.0;525.0
3.0;531.0
4.0;535.0
5.0;536.0
6.0;536.0
7.0;534.0
8.0;534.0
9.0;536.0
10.0;533.0
11.0;526.0
12.0;523.0
13.0;513.0
14.0;510.0
15.0;512.0
0.0;515.0
1.0;525.0
2.0;534.0
3.0;540.0
4.0;547.0
5.0;550.0
6.0;552.0
7.0;553.0
8.0;552.0
9.0;552.0
10.0;553.0
11.0;551.0
12.0;547.0
13.0;542.0
14.0;537.0
15.0;531.0
0.0;526.0
1.0;524.0
2.0;523.0
3.0;529.0
4.0;536.0
5.0;542.0
6.0;546.0
7.0;545.0
8.0;543.0
9.0;538.0
10.0;535.0
11.0;531.0
12.0;524.0
13.0;517.0
14.0;515.0
15.0;513.0
0.0;513.0
1.0;511.0
2.0;509.0
3.0;509.0
4.0;511.0
5.0;516.0
6.0;521.0
7.0;527.0
8.0;530.0
9.0;525.0
10.0;517.0
11.0;508.0
12.0;504.0
13.0;497.0
14.0;492.0
15.0;487.0
0.0;482.0
1.0;481.0
2.0;480.0
3.0;477.0
4.0;476.0
5.0;480.0
6.0;484.0
7.0;484.0
8.0;488.0
9.0;497.0
10.0;499.0
11.0;499.0
12.0;503.0
13.0;502.0
14.0;498.0
15.0;494.0
0.0;490.0
1.0;485.0
2.0;481.0
3.0;480.0
4.0;479.0
5.0;478.0
6.0;479.0
7.0;490.0
8.0;497.0
9.0;501.0
10.0;502.0
11.0;500.0
12.0;500.0
13.0;500.0
14.0;497.0
15.0;494.0
0.0;494.0
1.0;494.0
2.0;494.0
3.0;493.0
4.0;490.0
5.0;485.0
6.0;484.0
7.0;485.0
8.0;486.0
9.0;490.0
10.0;494.0
11.0;496.0
12.0;493.0
13.0;492.0
14.0;492.0
15.0;490.0
0.0;490.0
1.0;488.0
2.0;483.0
3.0;481.0
4.0;481.0
5.0;484.0
6.0;487.0
7.0;492.0
8.0;493.0
9.0;493.0
10.0;495.0
11.0;498.0
12.0;502.0
13.0;502.0
14.0;498.0
15.0;493.0
0.0;489.0
1.0;484.0
2.0;480.0
3.0;475.0
4.0;472.0
5.0;471.0
6.0;467.0
7.0;467.0
8.0;476.0
9.0;487.0
10.0;493.0
11.0;498.0
12.0;500.0
13.0;499.0
14.0;497.0
15.0;492.0
0.0;486.0
1.0;480.0
2.0;480.0
3.0;484.0
4.0;489.0
5.0;495.0
6.0;493.0
7.0;500.0
8.0;515.0
9.0;531.0
10.0;547.0
11.0;564.0
12.0;580.0
13.0;591.0
14.0;603.0
15.0;617.0
0.0;633.0
1.0;646.0
2.0;664.0
3.0;679.0
4.0;693.0
5.0;713.0
6.0;736.0
7.0;755.0
8.0;777.0
9.0;799.0
10.0;814.0
11.0;820.0
12.0;814.0
13.0;801.0
14.0;778.0
15.0;751.0
0.0;717.0
1.0;679.0
2.0;640.0
3.0;596.0
4.0;550.0
5.0;502.0
6.0;460.0
7.0;427.0
8.0;399.0
9.0;379.0
10.0;364.0
11.0;354.0
12.0;348.0
13.0;345.0
14.0;344.0
15.0;341.0
0.0;335.0
1.0;333.0
2.0;333.0
3.0;335.0
4.0;335.0
5.0;335.0
6.0;339.0
7.0;344.0
8.0;351.0
9.0;359.0
10.0;367.0
11.0;375.0
12.0;380.0
13.0;385.0
14.0;391.0
15.0;398.0
0.0;403.0
1.0;406.0
2.0;408.0
3.0;407.0
4.0;408.0
5.0;409.0
6.0;412.0
7.0;414.0
8.0;419.0
9.0;424.0
10.0;432.0
11.0;438.0
12.0;448.0
13.0;455.0
14.0;462.0
15.0;467.0
0.0;469.0
1.0;472.0
2.0;472.0
3.0;469.0
4.0;467.0
5.0;469.0
6.0;470.0
7.0;471.0
8.0;475.0
9.0;481.0
10.0;483.0
11.0;486.0
12.0;488.0
13.0;489.0
14.0;491.0
15.0;497.0
0.0;500.0
1.0;496.0
2.0;492.0
3.0;491.0
4.0;487.0
5.0;485.0
6.0;482.0
7.0;480.0
8.0;477.0
9.0;476.0
10.0;478.0
11.0;481.0
12.0;485.0
13.0;491.0
14.0;495.0
15.0;500.0
0.0;504.0
1.0;510.0
2.0;511.0
3.0;512.0
4.0;512.0
5.0;511.0
6.0;507.0
7.0;507.0
8.0;504.0
9.0;501.0
10.0;499.0
11.0;500.0
12.0;499.0
13.0;498.0
14.0;500.0
15.0;503.0
0.0;508.0
1.0;512.0
2.0;516.0
3.0;523.0
4.0;528.0
5.0;527.0
6.0;521.0
7.0;515.0
8.0;509.0
9.0;512.0
10.0;515.0
11.0;517.0
12.0;516.0
13.0;518.0
14.0;519.0
15.0;523.0
0.0;527.0
1.0;532.0
2.0;534.0
3.0;532.0
4.0;531.0
5.0;531.0
6.0;526.0
7.0;519.0
8.0;513.0
9.0;510.0
10.0;510.0
11.0;510.0
12.0;511.0
13.0;513.0
14.0;517.0
15.0;523.0
0.0;527.0
1.0;531.0
2.0;536.0
3.0;538.0
4.0;539.0
5.0;537.0
6.0;535.0
7.0;531.0
8.0;528.0
9.0;527.0
10.0;522.0
11.0;519.0
12.0;519.0
13.0;518.0
14.0;519.0
15.0;523.0
0.0;529.0
1.0;536.0
2.0;543.0
3.0;549.0
4.0;550.0
5.0;552.0
6.0;554.0
7.0;552.0
8.0;546.0
9.0;538.0
10.0;533.0
11.0;531.0
12.0;529.0
13.0;530.0
14.0;529.0
15.0;530.0
0.0;537.0
1.0;544.0
2.0;551.0
3.0;558.0
4.0;563.0
5.0;566.0
6.0;568.0
7.0;568.0
8.0;564.0
9.0;560.0
10.0;557.0
11.0;556.0
12.0;558.0
13.0;560.0
14.0;563.0
15.0;562.0
0.0;565.0
1.0;570.0
2.0;572.0
3.0;575.0
4.0;578.0
5.0;583.0
6.0;588.0
7.0;587.0
8.0;588.0
9.0;582.0
10.0;572.0
11.0;563.0
12.0;555.0
13.0;551.0
14.0;550.0
15.0;550.0
0.0;549.0
1.0;552.0
2.0;557.0
3.0;561.0
4.0;566.0
5.0;571.0
6.0;571.0
7.0;567.0
8.0;562.0
9.0;559.0
10.0;557.0
11.0;554.0
12.0;551.0
13.0;547.0
14.0;543.0
15.0;543.0
0.0;538.0
1.0;541.0
2.0;542.0
3.0;542.0
4.0;542.0
5.0;542.0
6.0;544.0
7.0;543.0
8.0;545.0
9.0;545.0
10.0;544.0
11.0;544.0
12.0;537.0
13.0;527.0
14.0;520.0
15.0;517.0
0.0;516.0
1.0;514.0
2.0;514.0
3.0;516.0
4.0;516.0
5.0;515.0
6.0;515.0
7.0;515.0
8.0;513.0
9.0;508.0
10.0;502.0
11.0;496.0
12.0;491.0
13.0;488.0
14.0;486.0
15.0;482.0
0.0;480.0
1.0;477.0
2.0;482.0
3.0;484.0
4.0;482.0
5.0;483.0
6.0;487.0
7.0;491.0
8.0;491.0
9.0;490.0
10.0;491.0
11.0;492.0
12.0;488.0
13.0;486.0
14.0;484.0
15.0;480.0
0.0;478.0
1.0;476.0
2.0;472.0
3.0;474.0
4.0;475.0
5.0;474.0
6.0;473.0
7.0;475.0
8.0;476.0
9.0;477.0
10.0;476.0
11.0;473.0
12.0;465.0
13.0;460.0
14.0;453.0
15.0;448.0
0.0;449.0
1.0;449.0
2.0;451.0
3.0;454.0
4.0;458.0
5.0;463.0
6.0;472.0
7.0;480.0
8.0;490.0
9.0;494.0
10.0;491.0
11.0;491.0
12.0;487.0
13.0;481.0
14.0;479.0
15.0;479.0
0.0;476.0
1.0;471.0
2.0;468.0
3.0;468.0
4.0;467.0
5.0;469.0
6.0;475.0
7.0;484.0
8.0;497.0
9.0;509.0
10.0;511.0
11.0;511.0
12.0;511.0
13.0;508.0
14.0;503.0
15.0;500.0
0.0;498.0
1.0;497.0
2.0;503.0
3.0;505.0
4.0;505.0
5.0;506.0
6.0;510.0
7.0;512.0
8.0;517.0
9.0;520.0
10.0;523.0
11.0;524.0
12.0;524.0
13.0;524.0
14.0;521.0
15.0;518.0
0.0;513.0
1.0;511.0
2.0;510.0
3.0;509.0
4.0;511.0
5.0;510.0
6.0;512.0
7.0;515.0
8.0;515.0
9.0;518.0
10.0;520.0
11.0;523.0
12.0;524.0
13.0;522.0
14.0;520.0
15.0;515.0
0.0;510.0
1.0;507.0
2.0;504.0
3.0;505.0
4.0;510.0
5.0;514.0
6.0;516.0
7.0;524.0
8.0;530.0
9.0;532.0
10.0;533.0
11.0;537.0
12.0;538.0
13.0;540.0
14.0;540.0
15.0;537.0
0.0;534.0
1.0;531.0
2.0;532.0
3.0;531.0
4.0;531.0
5.0;532.0
6.0;532.0
7.0;536.0
8.0;541.0
9.0;542.0
10.0;542.0
11.0;545.0
12.0;547.0
13.0;546.0
14.0;546.0
15.0;544.0
0.0;543.0
1.0;542.0
2.0;540.0
3.0;538.0
4.0;536.0
5.0;537.0
6.0;539.0
7.0;541.0
8.0;545.0
9.0;550.0
10.0;554.0
11.0;556.0
12.0;559.0
13.0;560.0
14.0;558.0
15.0;554.0
0.0;548.0
1.0;542.0
2.0;539.0
3.0;539.0
4.0;539.0
5.0;538.0
6.0;540.0
7.0;538.0
8.0;541.0
9.0;546.0
10.0;550.0
11.0;552.0
12.0;559.0
13.0;560.0
14.0;561.0
15.0;563.0
0.0;558.0
1.0;550.0
2.0;543.0
3.0;537.0
4.0;529.0
5.0;522.0
6.0;521.0
7.0;524.0
8.0;532.0
9.0;545.0
10.0;555.0
11.0;559.0
12.0;558.0
13.0;555.0
14.0;552.0
15.0;551.0
0.0;550.0
1.0;550.0
2.0;549.0
3.0;549.0
4.0;546.0
5.0;544.0
6.0;543.0
7.0;544.0
8.0;545.0
9.0;544.0
10.0;549.0
11.0;554.0
12.0;558.0
13.0;562.0
14.0;566.0
15.0;568.0
0.0;569.0
1.0;568.0
2.0;564.0
3.0;560.0
4.0;557.0
5.0;551.0
6.0;546.0
7.0;542.0
8.0;541.0
9.0;541.0
10.0;542.0
11.0;544.0
12.0;548.0
13.0;550.0
14.0;548.0
15.0;549.0
0.0;552.0
1.0;553.0
2.0;555.0
3.0;552.0
4.0;543.0
5.0;540.0
6.0;541.0
7.0;541.0
8.0;547.0
9.0;552.0
10.0;554.0
11.0;560.0
12.0;569.0
13.0;575.0
14.0;582.0
15.0;587.0
0.0;588.0
1.0;585.0
2.0;580.0
3.0;578.0
4.0;571.0
5.0;565.0
6.0;558.0
7.0;551.0
8.0;544.0
9.0;542.0
10.0;543.0
11.0;544.0
12.0;545.0
13.0;548.0
14.0;550.0
15.0;556.0
0.0;559.0
1.0;559.0
2.0;557.0
3.0;554.0
4.0;551.0
5.0;544.0
6.0;542.0
7.0;537.0
8.0;534.0
9.0;532.0
10.0;531.0
11.0;529.0
12.0;528.0
13.0;530.0
14.0;536.0
15.0;542.0
0.0;547.0
1.0;547.0
2.0;540.0
3.0;530.0
4.0;524.0
5.0;519.0
6.0;515.0
7.0;515.0
8.0;509.0
9.0;498.0
10.0;491.0
11.0;491.0
12.0;492.0
13.0;491.0
14.0;495.0
15.0;496.0
0.0;500.0
1.0;502.0
2.0;503.0
3.0;502.0
4.0;502.0
5.0;503.0
6.0;503.0
7.0;502.0
8.0;499.0
9.0;498.0
10.0;499.0
11.0;499.0
12.0;498.0
13.0;497.0
14.0;496.0
15.0;501.0
0.0;502.0
1.0;501.0
2.0;501.0
3.0;503.0
4.0;504.0
5.0;503.0
6.0;501.0
7.0;501.0
8.0;504.0
9.0;500.0
10.0;495.0
11.0;495.0
12.0;494.0
13.0;488.0
14.0;486.0
15.0;492.0
0.0;502.0
1.0;510.0
2.0;514.0
3.0;514.0
4.0;515.0
5.0;515.0
6.0;515.0
7.0;510.0
8.0;505.0
9.0;503.0
10.0;502.0
11.0;500.0
12.0;502.0
13.0;505.0
14.0;506.0
15.0;504.0
0.0;502.0
1.0;507.0
2.0;513.0
3.0;518.0
4.0;519.0
5.0;517.0
6.0;518.0
7.0;518.0
8.0;513.0
9.0;507.0
10.0;501.0
11.0;499.0
12.0;497.0
13.0;499.0
14.0;502.0
15.0;499.0
0.0;498.0
1.0;502.0
2.0;503.0
3.0;505.0
4.0;507.0
5.0;506.0
6.0;503.0
7.0;499.0
8.0;495.0
9.0;495.0
10.0;495.0
11.0;497.0
12.0;501.0
13.0;505.0
14.0;516.0
15.0;527.0
0.0;536.0
1.0;548.0
2.0;564.0
3.0;588.0
4.0;614.0
5.0;632.0
6.0;647.0
7.0;667.0
8.0;684.0
9.0;697.0
10.0;709.0
11.0;721.0
12.0;734.0
13.0;748.0
14.0;766.0
15.0;786.0
0.0;806.0
1.0;830.0
2.0;852.0
3.0;864.0
4.0;867.0
5.0;860.0
6.0;843.0
7.0;813.0
8.0;779.0
9.0;740.0
10.0;699.0
11.0;654.0
12.0;601.0
13.0;550.0
14.0;504.0
15.0;466.0
0.0;437.0
1.0;411.0
2.0;393.0
3.0;384.0
4.0;380.0
5.0;375.0
6.0;371.0
7.0;367.0
8.0;364.0
9.0;364.0
10.0;365.0
11.0;368.0
12.0;371.0
13.0;375.0
14.0;377.0
15.0;380.0
0.0;386.0
1.0;389.0
2.0;393.0
3.0;403.0
4.0;412.0
5.0;420.0
6.0;425.0
7.0;426.0
8.0;424.0
9.0;426.0
10.0;431.0
11.0;432.0
12.0;435.0
13.0;437.0
14.0;440.0
15.0;442.0
0.0;447.0
1.0;453.0
2.0;460.0
3.0;472.0
4.0;480.0
5.0;483.0
6.0;489.0
7.0;495.0
8.0;498.0
9.0;504.0
10.0;508.0
11.0;504.0
12.0;497.0
13.0;495.0
14.0;491.0
15.0;484.0
0.0;481.0
1.0;483.0
2.0;488.0
3.0;490.0
4.0;491.0
5.0;495.0
6.0;503.0
7.0;508.0
8.0;512.0
9.0;512.0
10.0;510.0
11.0;511.0
12.0;512.0
13.0;508.0
14.0;506.0
15.0;503.0
0.0;504.0
1.0;505.0
2.0;509.0
3.0;514.0
4.0;516.0
5.0;515.0
6.0;514.0
7.0;516.0
8.0;519.0
9.0;519.0
10.0;519.0
11.0;517.0
12.0;514.0
13.0;511.0
14.0;505.0
15.0;502.0
0.0;498.0
1.0;495.0
2.0;494.0
3.0;498.0
4.0;502.0
5.0;505.0
6.0;507.0
7.0;508.0
8.0;507.0
9.0;510.0
10.0;512.0
11.0;510.0
12.0;509.0
13.0;507.0
14.0;501.0
15.0;499.0
0.0;498.0
1.0;497.0
2.0;494.0
3.0;488.0
4.0;487.0
5.0;489.0
6.0;492.0
7.0;499.0
8.0;506.0
9.0;512.0
10.0;518.0
11.0;519.0
12.0;517.0
13.0;514.0
14.0;510.0
15.0;504.0
0.0;503.0
1.0;504.0
2.0;504.0
3.0;507.0
4.0;512.0
5.0;512.0
6.0;516.0
7.0;521.0
8.0;523.0
9.0;525.0
10.0;529.0
11.0;532.0
12.0;534.0
13.0;535.0
14.0;534.0
15.0;531.0
0.0;527.0
1.0;523.0
2.0;518.0
3.0;515.0
4.0;515.0
5.0;515.0
6.0;518.0
7.0;522.0
8.0;529.0
9.0;531.0
10.0;528.0
11.0;525.0
12.0;526.0
13.0;531.0
14.0;530.0
15.0;527.0
0.0;527.0
1.0;531.0
2.0;536.0
3.0;542.0
4.0;544.0
5.0;544.0
6.0;544.0
7.0;543.0
8.0;544.0
9.0;545.0
10.0;544.0
11.0;545.0
12.0;546.0
13.0;544.0
14.0;541.0
15.0;537.0
0.0;532.0
1.0;525.0
2.0;522.0
3.0;519.0
4.0;515.0
5.0;514.0
6.0;515.0
7.0;515.0
8.0;515.0
9.0;518.0
10.0;524.0
11.0;531.0
12.0;536.0
13.0;542.0
14.0;543.0
15.0;541.0
0.0;541.0
1.0;540.0
2.0;536.0
3.0;531.0
4.0;527.0
5.0;525.0
6.0;523.0
7.0;524.0
8.0;525.0
9.0;528.0
10.0;534.0
11.0;540.0
12.0;546.0
13.0;550.0
14.0;555.0
15.0;552.0
0.0;550.0
1.0;549.0
2.0;547.0
3.0;545.0
4.0;541.0
5.0;535.0
6.0;530.0
7.0;528.0
8.0;529.0
9.0;530.0
10.0;537.0
11.0;542.0
12.0;544.0
13.0;547.0
14.0;549.0
15.0;547.0
0.0;546.0
1.0;540.0
2.0;534.0
3.0;531.0
4.0;526.0
5.0;519.0
6.0;515.0
7.0;513.0
8.0;512.0
9.0;508.0
10.0;504.0
11.0;507.0
12.0;511.0
13.0;516.0
14.0;517.0
15.0;512.0
0.0;508.0
1.0;502.0
2.0;490.0
3.0;482.0
4.0;478.0
5.0;472.0
6.0;471.0
7.0;471.0
8.0;474.0
9.0;479.0
10.0;478.0
11.0;476.0
12.0;478.0
13.0;481.0
14.0;482.0
15.0;486.0
0.0;489.0
1.0;485.0
2.0;480.0
3.0;480.0
4.0;478.0
5.0;472.0
6.0;465.0
7.0;464.0
8.0;462.0
9.0;462.0
10.0;464.0
11.0;468.0
12.0;471.0
13.0;478.0
14.0;486.0
15.0;489.0
0.0;490.0
1.0;490.0
2.0;487.0
3.0;485.0
4.0;485.0
5.0;481.0
6.0;477.0
7.0;475.0
8.0;472.0
9.0;472.0
10.0;473.0
11.0;473.0
12.0;474.0
13.0;479.0
14.0;485.0
15.0;487.0
0.0;493.0
1.0;500.0
2.0;502.0
3.0;499.0
4.0;497.0
5.0;497.0
6.0;495.0
7.0;491.0
8.0;486.0
9.0;484.0
10.0;487.0
11.0;489.0
12.0;487.0
13.0;487.0
14.0;491.0
15.0;494.0
0.0;497.0
1.0;503.0
2.0;507.0
3.0;508.0
4.0;510.0
5.0;509.0
6.0;504.0
7.0;500.0
8.0;500.0
9.0;496.0
10.0;491.0
11.0;488.0
12.0;486.0
13.0;480.0
14.0;477.0
15.0;478.0
0.0;484.0
1.0;491.0
2.0;497.0
3.0;501.0
4.0;498.0
5.0;497.0
6.0;499.0
7.0;498.0
8.0;490.0
9.0;488.0
10.0;484.0
11.0;484.0
12.0;487.0
13.0;489.0
14.0;489.0
15.0;489.0
0.0;492.0
1.0;495.0
2.0;500.0
3.0;505.0
4.0;505.0
5.0;505.0
6.0;503.0
7.0;498.0
8.0;492.0
9.0;488.0
10.0;491.0
11.0;491.0
12.0;492.0
13.0;495.0
14.0;494.0
15.0;493.0
0.0;496.0
1.0;499.0
2.0;502.0
3.0;506.0
4.0;508.0
5.0;507.0
6.0;505.0
7.0;504.0
8.0;499.0
9.0;495.0
10.0;491.0
11.0;490.0
12.0;492.0
13.0;496.0
14.0;498.0
15.0;501.0
0.0;505.0
1.0;517.0
2.0;532.0
3.0;539.0
4.0;544.0
5.0;540.0
6.0;531.0
7.0;529.0
8.0;529.0
9.0;524.0
10.0;519.0
11.0;519.0
12.0;514.0
13.0;508.0
14.0;506.0
15.0;508.0
0.0;511.0
1.0;513.0
2.0;516.0
3.0;519.0
4.0;522.0
5.0;530.0
6.0;535.0
7.0;534.0
8.0;532.0
9.0;527.0
10.0;523.0
11.0;520.0
12.0;518.0
13.0;517.0
14.0;519.0
15.0;519.0
0.0;521.0
1.0;523.0
2.0;527.0
3.0;531.0
4.0;532.0
5.0;534.0
6.0;534.0
7.0;532.0
8.0;529.0
9.0;526.0
10.0;523.0
11.0;521.0
12.0;522.0
13.0;527.0
14.0;527.0
15.0;526.0
0.0;527.0
1.0;526.0
2.0;525.0
3.0;523.0
4.0;524.0
5.0;524.0
6.0;523.0
7.0;524.0
8.0;527.0
9.0;525.0
10.0;531.0
11.0;536.0
12.0;531.0
13.0;535.0
14.0;536.0
15.0;539.0
0.0;539.0
1.0;533.0
2.0;524.0
3.0;519.0
4.0;519.0
5.0;519.0
6.0;527.0
7.0;533.0
8.0;535.0
9.0;535.0
10.0;533.0
11.0;531.0
12.0;527.0
13.0;523.0
14.0;520.0
15.0;516.0
0.0;516.0
1.0;518.0
2.0;515.0
3.0;515.0
4.0;520.0
5.0;524.0
6.0;527.0
7.0;529.0
8.0;531.0
9.0;530.0
10.0;529.0
11.0;528.0
12.0;523.0
13.0;517.0
14.0;514.0
15.0;513.0
0.0;511.0
1.0;514.0
2.0;518.0
3.0;518.0
4.0;519.0
5.0;523.0
6.0;525.0
7.0;526.0
8.0;528.0
9.0;531.0
10.0;532.0
11.0;534.0
12.0;530.0
13.0;527.0
14.0;527.0
15.0;525.0
0.0;519.0
1.0;519.0
2.0;522.0
3.0;526.0
4.0;532.0
5.0;534.0
6.0;533.0
7.0;530.0
8.0;534.0
9.0;540.0
10.0;543.0
11.0;545.0
12.0;544.0
13.0;541.0
14.0;533.0
15.0;525.0
0.0;520.0
1.0;515.0
2.0;510.0
3.0;510.0
4.0;514.0
5.0;523.0
6.0;533.0
7.0;540.0
8.0;545.0
9.0;550.0
10.0;554.0
11.0;556.0
12.0;558.0
13.0;560.0
14.0;558.0
15.0;554.0
0.0;550.0
1.0;545.0
2.0;543.0
3.0;541.0
4.0;539.0
5.0;536.0
6.0;536.0
7.0;537.0
8.0;538.0
9.0;544.0
10.0;551.0
11.0;561.0
12.0;571.0
13.0;585.0
14.0;588.0
15.0;581.0
0.0;571.0
1.0;559.0
2.0;548.0
3.0;541.0
4.0;536.0
5.0;531.0
6.0;526.0
7.0;527.0
8.0;531.0
9.0;537.0
10.0;539.0
11.0;542.0
12.0;543.0
13.0;544.0
14.0;541.0
15.0;536.0
0.0;529.0
1.0;522.0
2.0;518.0
3.0;514.0
4.0;510.0
5.0;505.0
6.0;501.0
7.0;501.0
8.0;500.0
9.0;500.0
10.0;499.0
11.0;503.0
12.0;505.0
13.0;506.0
14.0;504.0
15.0;499.0
0.0;494.0
1.0;487.0
2.0;480.0
3.0;478.0
4.0;480.0
5.0;481.0
6.0;481.0
7.0;479.0
8.0;476.0
9.0;477.0
10.0;477.0
11.0;477.0
12.0;479.0
13.0;481.0
14.0;481.0
15.0;482.0
0.0;482.0
1.0;478.0
2.0;476.0
3.0;475.0
4.0;472.0
5.0;471.0
6.0;471.0
7.0;472.0
8.0;475.0
9.0;481.0
10.0;489.0
11.0;492.0
12.0;495.0
13.0;495.0
14.0;493.0
15.0;493.0
0.0;493.0
1.0;492.0
2.0;486.0
3.0;482.0
4.0;484.0
5.0;480.0
6.0;476.0
7.0;476.0
8.0;476.0
9.0;475.0
10.0;477.0
11.0;484.0
12.0;487.0
13.0;492.0
14.0;498.0
15.0;509.0
0.0;517.0
1.0;516.0
2.0;507.0
3.0;501.0
4.0;498.0
5.0;494.0
6.0;492.0
7.0;494.0
8.0;496.0
9.0;498.0
10.0;503.0
11.0;505.0
12.0;506.0
13.0;510.0
14.0;506.0
15.0;509.0
0.0;509.0
1.0;507.0
2.0;504.0
3.0;500.0
4.0;498.0
5.0;494.0
6.0;490.0
7.0;490.0
8.0;491.0
9.0;492.0
10.0;492.0
11.0;495.0
12.0;496.0
13.0;498.0
14.0;502.0
15.0;503.0
0.0;502.0
1.0;504.0
2.0;510.0
3.0;519.0
4.0;528.0
5.0;541.0
6.0;554.0
7.0;567.0
8.0;582.0
9.0;599.0
10.0;615.0
11.0;633.0
12.0;654.0
13.0;674.0
14.0;698.0
15.0;724.0
0.0;746.0
1.0;763.0
2.0;782.0
3.0;804.0
4.0;819.0
5.0;834.0
6.0;842.0
7.0;840.0
8.0;831.0
9.0;815.0
10.0;791.0
11.0;760.0
12.0;726.0
13.0;688.0
14.0;651.0
15.0;608.0
0.0;563.0
1.0;520.0
2.0;484.0
3.0;451.0
4.0;423.0
5.0;398.0
6.0;379.0
7.0;365.0
8.0;355.0
9.0;348.0
10.0;344.0
11.0;345.0
12.0;352.0
13.0;358.0
14.0;366.0
15.0;378.0
0.0;391.0
1.0;399.0
2.0;402.0
3.0;406.0
4.0;411.0
5.0;409.0
6.0;408.0
7.0;409.0
8.0;410.0
9.0;413.0
10.0;417.0
11.0;419.0
12.0;418.0
13.0;422.0
14.0;430.0
15.0;438.0
0.0;441.0
1.0;450.0
2.0;463.0
3.0;471.0
4.0;475.0
5.0;480.0
6.0;480.0
7.0;479.0
8.0;479.0
9.0;477.0
10.0;476.0
11.0;477.0
12.0;481.0
13.0;485.0
14.0;489.0
15.0;498.0
0.0;505.0
1.0;512.0
2.0;515.0
3.0;518.0
4.0;520.0
5.0;524.0
6.0;527.0
7.0;525.0
8.0;527.0
9.0;526.0
10.0;525.0
11.0;520.0
12.0;513.0
13.0;510.0
14.0;509.0
15.0;512.0
0.0;513.0
1.0;515.0
2.0;516.0
3.0;517.0
4.0;516.0
5.0;518.0
6.0;519.0
7.0;519.0
8.0;519.0
9.0;519.0
10.0;519.0
11.0;517.0
12.0;518.0
13.0;523.0
14.0;522.0
15.0;521.0
0.0;519.0
1.0;522.0
2.0;525.0
3.0;528.0
4.0;534.0
5.0;535.0
6.0;535.0
7.0;535.0
8.0;535.0
9.0;534.0
10.0;530.0
11.0;527.0
12.0;521.0
13.0;519.0
14.0;521.0
15.0;523.0
0.0;527.0
1.0;532.0
2.0;537.0
3.0;541.0
4.0;542.0
5.0;543.0
6.0;542.0
7.0;542.0
8.0;541.0
9.0;535.0
10.0;528.0
11.0;526.0
12.0;522.0
13.0;522.0
14.0;523.0
15.0;525.0
0.0;527.0
1.0;531.0
2.0;536.0
3.0;541.0
4.0;548.0
5.0;554.0
6.0;554.0
7.0;552.0
8.0;550.0
9.0;545.0
10.0;539.0
11.0;535.0
12.0;531.0
13.0;527.0
14.0;526.0
15.0;529.0
0.0;529.0
1.0;531.0
2.0;530.0
3.0;534.0
4.0;537.0
5.0;538.0
6.0;546.0
7.0;556.0
8.0;563.0
9.0;567.0
10.0;565.0
11.0;559.0
12.0;555.0
13.0;550.0
14.0;540.0
15.0;535.0
0.0;534.0
1.0;535.0
2.0;535.0
3.0;537.0
4.0;541.0
5.0;547.0
6.0;553.0
7.0;558.0
8.0;561.0
9.0;565.0
10.0;566.0
11.0;566.0
12.0;562.0
13.0;560.0
14.0;554.0
15.0;555.0
0.0;555.0
1.0;554.0
2.0;554.0
3.0;555.0
4.0;560.0
5.0;562.0
6.0;567.0
7.0;574.0
8.0;577.0
9.0;581.0
10.0;579.0
11.0;574.0
12.0;568.0
13.0;563.0
14.0;563.0
15.0;557.0
0.0;553.0
1.0;553.0
2.0;553.0
3.0;555.0
4.0;559.0
5.0;564.0
6.0;571.0
7.0;575.0
8.0;580.0
9.0;578.0
10.0;576.0
11.0;578.0
12.0;574.0
13.0;574.0
14.0;571.0
15.0;564.0
0.0;560.0
1.0;560.0
2.0;563.0
3.0;561.0
4.0;557.0
5.0;553.0
6.0;549.0
7.0;547.0
8.0;545.0
9.0;543.0
10.0;539.0
11.0;534.0
12.0;532.0
13.0;534.0
14.0;536.0
15.0;533.0
0.0;527.0
1.0;525.0
2.0;526.0
3.0;523.0
4.0;521.0
5.0;524.0
6.0;532.0
7.0;537.0
8.0;539.0
9.0;540.0
10.0;539.0
11.0;536.0
12.0;532.0
13.0;528.0
14.0;523.0
15.0;516.0
0.0;509.0
1.0;503.0
2.0;499.0
3.0;495.0
4.0;493.0
5.0;490.0
6.0;491.0
7.0;499.0
8.0;511.0
9.0;517.0
10.0;521.0
11.0;520.0
12.0;518.0
13.0;513.0
14.0;511.0
15.0;507.0
0.0;503.0
1.0;500.0
2.0;496.0
3.0;492.0
4.0;489.0
5.0;487.0
6.0;486.0
7.0;489.0
8.0;492.0
9.0;494.0
10.0;496.0
11.0;496.0
12.0;494.0
13.0;493.0
14.0;492.0
15.0;487.0
0.0;485.0
1.0;486.0
2.0;483.0
3.0;478.0
4.0;477.0
5.0;479.0
6.0;481.0
7.0;478.0
8.0;480.0
9.0;482.0
10.0;486.0
11.0;489.0
12.0;491.0
13.0;492.0
14.0;493.0
15.0;491.0
0.0;487.0
1.0;484.0
2.0;481.0
3.0;481.0
4.0;482.0
5.0;484.0
6.0;484.0
7.0;484.0
8.0;489.0
9.0;493.0
10.0;493.0
11.0;498.0
12.0;503.0
13.0;505.0
14.0;503.0
15.0;498.0
0.0;491.0
1.0;486.0
2.0;481.0
3.0;479.0
4.0;473.0
5.0;474.0
6.0;480.0
7.0;490.0
8.0;498.0
9.0;508.0
10.0;514.0
11.0;513.0
12.0;510.0
13.0;504.0
14.0;497.0
15.0;493.0
0.0;489.0
1.0;484.0
2.0;478.0
3.0;476.0
4.0;472.0
5.0;472.0
6.0;476.0
7.0;480.0
8.0;485.0
9.0;488.0
10.0;494.0
11.0;498.0
12.0;502.0
13.0;507.0
14.0;510.0
15.0;509.0
0.0;507.0
1.0;505.0
2.0;502.0
3.0;498.0
4.0;496.0
5.0;495.0
6.0;494.0
7.0;494.0
8.0;495.0
9.0;499.0
10.0;504.0
11.0;508.0
12.0;512.0
13.0;516.0
14.0;519.0
15.0;519.0
0.0;521.0
1.0;520.0
2.0;521.0
3.0;515.0
4.0;510.0
5.0;509.0
6.0;508.0
7.0;506.0
8.0;505.0
9.0;503.0
10.0;503.0
11.0;506.0
12.0;508.0
13.0;507.0
14.0;503.0
15.0;507.0
0.0;507.0
1.0;510.0
2.0;514.0
3.0;516.0
4.0;516.0
5.0;515.0
6.0;515.0
7.0;513.0
8.0;509.0
9.0;506.0
10.0;504.0
11.0;507.0
12.0;512.0
13.0;519.0
14.0;522.0
15.0;528.0
0.0;528.0
1.0;523.0
2.0;519.0
3.0;515.0
4.0;511.0
5.0;506.0
6.0;507.0
7.0;512.0
8.0;513.0
9.0;510.0
10.0;505.0
11.0;506.0
12.0;510.0
13.0;513.0
14.0;513.0
15.0;514.0
0.0;515.0
1.0;513.0
2.0;511.0
3.0;507.0
4.0;506.0
5.0;507.0
6.0;505.0
7.0;503.0
8.0;502.0
9.0;502.0
10.0;504.0
11.0;504.0
12.0;505.0
13.0;510.0
14.0;511.0
15.0;514.0
0.0;518.0
1.0;519.0
2.0;518.0
3.0;518.0
4.0;517.0
5.0;511.0
6.0;505.0
7.0;504.0
8.0;504.0
9.0;504.0
10.0;504.0
11.0;505.0
12.0;507.0
13.0;511.0
14.0;515.0
15.0;518.0
0.0;520.0
1.0;523.0
2.0;523.0
3.0;524.0
4.0;522.0
5.0;516.0
6.0;511.0
7.0;507.0
8.0;503.0
9.0;494.0
10.0;496.0
11.0;498.0
12.0;492.0
13.0;492.0
14.0;496.0
15.0;501.0
0.0;507.0
1.0;515.0
2.0;520.0
3.0;519.0
4.0;516.0
5.0;514.0
6.0;509.0
7.0;504.0
8.0;499.0
9.0;494.0
10.0;493.0
11.0;491.0
12.0;490.0
13.0;487.0
14.0;488.0
15.0;495.0
0.0;502.0
1.0;506.0
2.0;508.0
3.0;511.0
4.0;510.0
5.0;509.0
6.0;507.0
7.0;501.0
8.0;498.0
9.0;500.0
10.0;500.0
11.0;495.0
12.0;489.0
13.0;485.0
14.0;486.0
15.0;490.0
0.0;496.0
1.0;502.0
2.0;508.0
3.0;515.0
4.0;518.0
5.0;521.0
6.0;526.0
7.0;527.0
8.0;523.0
9.0;521.0
10.0;521.0
11.0;516.0
12.0;514.0
13.0;512.0
14.0;517.0
15.0;518.0
0.0;513.0
1.0;513.0
2.0;513.0
3.0;516.0
4.0;519.0
5.0;522.0
6.0;530.0
7.0;533.0
8.0;533.0
9.0;531.0
10.0;532.0
11.0;532.0
12.0;527.0
13.0;522.0
14.0;519.0
15.0;518.0
0.0;518.0
1.0;524.0
2.0;528.0
3.0;531.0
4.0;534.0
5.0;536.0
6.0;537.0
7.0;537.0
8.0;540.0
9.0;544.0
10.0;543.0
11.0;553.0
12.0;551.0
13.0;543.0
14.0;542.0
15.0;540.0
0.0;536.0
1.0;537.0
2.0;540.0
3.0;543.0
4.0;545.0
5.0;545.0
6.0;546.0
7.0;545.0
8.0;540.0
9.0;529.0
10.0;524.0
11.0;523.0
12.0;522.0
13.0;521.0
14.0;516.0
15.0;515.0
0.0;512.0
1.0;512.0
2.0;515.0
3.0;520.0
4.0;519.0
5.0;518.0
6.0;519.0
7.0;515.0
8.0;512.0
9.0;512.0
10.0;509.0
11.0;505.0
12.0;498.0
13.0;490.0
14.0;485.0
15.0;481.0
0.0;480.0
1.0;477.0
2.0;473.0
3.0;477.0
4.0;482.0
5.0;485.0
6.0;486.0
7.0;486.0
8.0;486.0
9.0;482.0
10.0;476.0
11.0;468.0
12.0;461.0
13.0;458.0
14.0;455.0
15.0;453.0
0.0;454.0
1.0;455.0
2.0;460.0
3.0;463.0
4.0;468.0
5.0;473.0
6.0;478.0
7.0;482.0
8.0;483.0
9.0;484.0
10.0;484.0
11.0;483.0
12.0;481.0
13.0;482.0
14.0;481.0
15.0;476.0
0.0;471.0
1.0;471.0
2.0;469.0
3.0;470.0
4.0;474.0
5.0;480.0
6.0;485.0
7.0;489.0
8.0;491.0
9.0;488.0
10.0;487.0
11.0;487.0
12.0;486.0
13.0;481.0
14.0;476.0
15.0;473.0
0.0;470.0
1.0;469.0
2.0;472.0
3.0;474.0
4.0;475.0
5.0;479.0
6.0;487.0
7.0;495.0
8.0;502.0
9.0;507.0
10.0;506.0
11.0;503.0
12.0;499.0
13.0;502.0
14.0;499.0
15.0;494.0
0.0;494.0
1.0;489.0
2.0;484.0
3.0;481.0
4.0;482.0
5.0;486.0
6.0;488.0
7.0;493.0
8.0;497.0
9.0;500.0
10.0;502.0
11.0;500.0
12.0;495.0
13.0;496.0
14.0;494.0
15.0;487.0
0.0;483.0
1.0;482.0
2.0;477.0
3.0;473.0
4.0;471.0
5.0;472.0
6.0;478.0
7.0;481.0
8.0;487.0
9.0;496.0
10.0;505.0
11.0;510.0
12.0;514.0
13.0;522.0
14.0;530.0
15.0;536.0
0.0;544.0
1.0;557.0
2.0;574.0
3.0;593.0
4.0;616.0
5.0;635.0
6.0;657.0
7.0;679.0
8.0;700.0
9.0;718.0
10.0;738.0
11.0;758.0
12.0;776.0
13.0;793.0
14.0;811.0
15.0;819.0
0.0;817.0
1.0;806.0
2.0;786.0
3.0;759.0
4.0;728.0
5.0;692.0
6.0;651.0
7.0;611.0
8.0;571.0
9.0;529.0
10.0;491.0
11.0;457.0
12.0;425.0
13.0;397.0
14.0;378.0
15.0;364.0
0.0;351.0
1.0;339.0
2.0;332.0
3.0;326.0
4.0;323.0
5.0;324.0
6.0;328.0
7.0;336.0
8.0;346.0
9.0;355.0
10.0;362.0
11.0;369.0
12.0;376.0
13.0;379.0
14.0;382.0
15.0;385.0
0.0;382.0
1.0;377.0
2.0;376.0
3.0;375.0
4.0;376.0
5.0;378.0
6.0;381.0
7.0;387.0
8.0;395.0
9.0;406.0
10.0;413.0
11.0;418.0
12.0;426.0
13.0;434.0
14.0;437.0
15.0;440.0
0.0;441.0
1.0;442.0
2.0;446.0
3.0;446.0
4.0;445.0
5.0;447.0
6.0;450.0
7.0;451.0
8.0;453.0
9.0;457.0
10.0;461.0
11.0;464.0
12.0;468.0
13.0;472.0
14.0;476.0
15.0;480.0
0.0;480.0
1.0;479.0
2.0;476.0
3.0;473.0
4.0;472.0
5.0;468.0
6.0;465.0
7.0;463.0
8.0;461.0
9.0;463.0
10.0;469.0
11.0;473.0
12.0;476.0
13.0;480.0
14.0;481.0
15.0;483.0
0.0;483.0
1.0;482.0
2.0;478.0
3.0;473.0
4.0;469.0
5.0;464.0
6.0;461.0
7.0;461.0
8.0;467.0
9.0;469.0
10.0;474.0
11.0;482.0
12.0;485.0
13.0;487.0
14.0;491.0
15.0;496.0
0.0;496.0
1.0;495.0
2.0;498.0
3.0;495.0
4.0;487.0
5.0;482.0
6.0;481.0
7.0;480.0
8.0;481.0
9.0;485.0
10.0;486.0
11.0;485.0
12.0;487.0
13.0;493.0
14.0;498.0
15.0;504.0
0.0;505.0
1.0;506.0
2.0;504.0
3.0;499.0
4.0;494.0
5.0;491.0
6.0;488.0
7.0;489.0
8.0;494.0
9.0;497.0
10.0;499.0
11.0;502.0
12.0;506.0
13.0;511.0
14.0;511.0
15.0;510.0
0.0;510.0
1.0;510.0
2.0;507.0
3.0;510.0
4.0;512.0
5.0;511.0
6.0;506.0
7.0;502.0
8.0;499.0
9.0;495.0
10.0;495.0
11.0;498.0
12.0;499.0
13.0;499.0
14.0;501.0
15.0;504.0
0.0;509.0
1.0;511.0
2.0;510.0
3.0;511.0
4.0;513.0
5.0;510.0
6.0;506.0
7.0;501.0
8.0;499.0
9.0;498.0
10.0;499.0
11.0;500.0
12.0;500.0
13.0;504.0
14.0;510.0
15.0;515.0
0.0;520.0
1.0;522.0
2.0;522.0
3.0;524.0
4.0;523.0
5.0;519.0
6.0;516.0
7.0;513.0
8.0;511.0
9.0;511.0
10.0;511.0
11.0;513.0
12.0;515.0
13.0;517.0
14.0;522.0
15.0;526.0
0.0;530.0
1.0;534.0
2.0;542.0
3.0;544.0
4.0;543.0
5.0;542.0
6.0;537.0
7.0;530.0
8.0;527.0
9.0;523.0
10.0;519.0
11.0;516.0
12.0;518.0
13.0;519.0
14.0;523.0
15.0;529.0
0.0;534.0
1.0;540.0
2.0;546.0
3.0;550.0
4.0;549.0
5.0;547.0
6.0;544.0
7.0;541.0
8.0;536.0
9.0;535.0
10.0;529.0
11.0;523.0
12.0;519.0
13.0;519.0
14.0;523.0
15.0;524.0
0.0;523.0
1.0;521.0
2.0;521.0
3.0;522.0
4.0;528.0
5.0;535.0
6.0;529.0
7.0;524.0
8.0;521.0
9.0;516.0
10.0;509.0
11.0;504.0
12.0;502.0
13.0;501.0
14.0;508.0
15.0;512.0
0.0;514.0
1.0;511.0
2.0;514.0
3.0;515.0
4.0;514.0
5.0;510.0
6.0;503.0
7.0;499.0
8.0;496.0
9.0;494.0
10.0;487.0
11.0;481.0
12.0;476.0
13.0;473.0
14.0;471.0
15.0;469.0
0.0;473.0
1.0;474.0
2.0;474.0
3.0;478.0
4.0;483.0
5.0;485.0
6.0;483.0
7.0;481.0
8.0;481.0
9.0;477.0
10.0;468.0
11.0;464.0
12.0;460.0
13.0;455.0
14.0;455.0
15.0;457.0
0.0;457.0
1.0;458.0
2.0;464.0
3.0;470.0
4.0;472.0
5.0;476.0
6.0;480.0
7.0;483.0
8.0;484.0
9.0;482.0
10.0;480.0
11.0;475.0
12.0;468.0
13.0;459.0
14.0;452.0
15.0;449.0
0.0;446.0
1.0;445.0
2.0;449.0
3.0;452.0
4.0;456.0
5.0;460.0
6.0;464.0
7.0;466.0
8.0;465.0
9.0;465.0
10.0;465.0
11.0;461.0
12.0;456.0
13.0;454.0
14.0;449.0
15.0;446.0
0.0;446.0
1.0;449.0
2.0;452.0
3.0;455.0
4.0;460.0
5.0;465.0
6.0;468.0
7.0;471.0
8.0;473.0
9.0;472.0
10.0;469.0
11.0;462.0
12.0;459.0
13.0;457.0
14.0;450.0
15.0;443.0
0.0;443.0
1.0;444.0
2.0;445.0
3.0;452.0
4.0;459.0
5.0;459.0
6.0;460.0
7.0;468.0
8.0;480.0
9.0;483.0
10.0;479.0
11.0;476.0
12.0;471.0
13.0;467.0
14.0;462.0
15.0;458.0
0.0;459.0
1.0;457.0
2.0;454.0
3.0;454.0
4.0;459.0
5.0;467.0
6.0;473.0
7.0;482.0
8.0;491.0
9.0;495.0
10.0;499.0
11.0;496.0
12.0;491.0
13.0;487.0
14.0;483.0
15.0;479.0
0.0;475.0
1.0;472.0
2.0;472.0
3.0;472.0
4.0;474.0
5.0;478.0
6.0;481.0
7.0;485.0
8.0;489.0
9.0;495.0
10.0;496.0
11.0;496.0
12.0;496.0
13.0;491.0
14.0;485.0
15.0;480.0
0.0;477.0
1.0;476.0
2.0;477.0
3.0;477.0
4.0;478.0
5.0;480.0
6.0;487.0
7.0;493.0
8.0;499.0
9.0;504.0
10.0;506.0
11.0;506.0
12.0;505.0
13.0;501.0
14.0;497.0
15.0;492.0
0.0;490.0
1.0;488.0
2.0;488.0
3.0;490.0
4.0;489.0
5.0;489.0
6.0;491.0
7.0;495.0
8.0;501.0
9.0;506.0
10.0;508.0
11.0;510.0
12.0;512.0
13.0;510.0
14.0;502.0
15.0;495.0
0.0;490.0
1.0;486.0
2.0;482.0
3.0;480.0
4.0;480.0
5.0;479.0
6.0;480.0
7.0;482.0
8.0;486.0
9.0;494.0
10.0;500.0
11.0;500.0
12.0;497.0
13.0;494.0
14.0;491.0
15.0;484.0
0.0;480.0
1.0;480.0
2.0;484.0
3.0;486.0
4.0;490.0
5.0;492.0
6.0;489.0
7.0;488.0
8.0;495.0
9.0;499.0
10.0;504.0
11.0;506.0
12.0;507.0
13.0;506.0
14.0;504.0
15.0;504.0
0.0;504.0
1.0;497.0
2.0;491.0
3.0;486.0
4.0;481.0
5.0;478.0
6.0;480.0
7.0;480.0
8.0;479.0
9.0;485.0
10.0;491.0
11.0;496.0
12.0;499.0
13.0;499.0
14.0;498.0
15.0;495.0
0.0;492.0
1.0;489.0
2.0;488.0
3.0;485.0
4.0;482.0
5.0;481.0
6.0;481.0
7.0;480.0
8.0;481.0
9.0;486.0
10.0;491.0
11.0;494.0
12.0;498.0
13.0;503.0
14.0;502.0
15.0;501.0
0.0;502.0
1.0;498.0
2.0;493.0
3.0;490.0
4.0;487.0
5.0;486.0
6.0;487.0
7.0;489.0
8.0;491.0
9.0;496.0
10.0;500.0
11.0;503.0
12.0;501.0
13.0;500.0
14.0;500.0
15.0;500.0
0.0;502.0
1.0;502.0
2.0;498.0
3.0;493.0
4.0;491.0
5.0;491.0
6.0;487.0
7.0;485.0
8.0;482.0
9.0;483.0
10.0;488.0
11.0;495.0
12.0;501.0
13.0;506.0
14.0;509.0
15.0;510.0
0.0;515.0
1.0;514.0
2.0;512.0
3.0;510.0
4.0;511.0
5.0;513.0
6.0;511.0
7.0;510.0
8.0;508.0
9.0;504.0
10.0;501.0
11.0;503.0
12.0;505.0
13.0;507.0
14.0;509.0
15.0;512.0
0.0;511.0
1.0;511.0
2.0;510.0
3.0;509.0
4.0;507.0
5.0;504.0
6.0;503.0
7.0;500.0
8.0;496.0
9.0;496.0
10.0;496.0
11.0;503.0
12.0;513.0
13.0;521.0
14.0;528.0
15.0;535.0
0.0;537.0
1.0;540.0
2.0;542.0
3.0;543.0
4.0;535.0
5.0;527.0
6.0;523.0
7.0;520.0
8.0;519.0
9.0;519.0
10.0;520.0
11.0;521.0
12.0;523.0
13.0;526.0
14.0;527.0
15.0;531.0
0.0;534.0
1.0;535.0
2.0;534.0
3.0;531.0
4.0;526.0
5.0;518.0
6.0;510.0
7.0;504.0
8.0;504.0
9.0;504.0
10.0;502.0
11.0;500.0
12.0;500.0
13.0;504.0
14.0;504.0
15.0;498.0
0.0;499.0
1.0;504.0
2.0;501.0
3.0;497.0
4.0;495.0
5.0;487.0
6.0;479.0
7.0;472.0
8.0;468.0
9.0;468.0
10.0;467.0
11.0;469.0
12.0;469.0
13.0;469.0
14.0;473.0
15.0;478.0
0.0;481.0
1.0;482.0
2.0;479.0
3.0;475.0
4.0;472.0
5.0;471.0
6.0;468.0
7.0;466.0
8.0;463.0
9.0;460.0
10.0;458.0
11.0;457.0
12.0;459.0
13.0;463.0
14.0;466.0
15.0;472.0
0.0;472.0
1.0;475.0
2.0;479.0
3.0;481.0
4.0;481.0
5.0;480.0
6.0;477.0
7.0;471.0
8.0;468.0
9.0;465.0
10.0;464.0
11.0;464.0
12.0;465.0
13.0;461.0
14.0;460.0
15.0;466.0
0.0;471.0
1.0;474.0
2.0;478.0
3.0;483.0
4.0;485.0
5.0;486.0
6.0;487.0
7.0;478.0
8.0;468.0
9.0;465.0
10.0;463.0
11.0;462.0
12.0;463.0
13.0;463.0
14.0;462.0
15.0;460.0
0.0;462.0
1.0;471.0
2.0;475.0
3.0;478.0
4.0;484.0
5.0;488.0
6.0;490.0
7.0;489.0
8.0;489.0
9.0;486.0
10.0;484.0
11.0;483.0
12.0;485.0
13.0;486.0
14.0;484.0
15.0;483.0
0.0;486.0
1.0;489.0
2.0;493.0
3.0;497.0
4.0;499.0
5.0;496.0
6.0;491.0
7.0;487.0
8.0;483.0
9.0;479.0
10.0;475.0
11.0;472.0
12.0;470.0
13.0;471.0
14.0;476.0
15.0;484.0
0.0;495.0
1.0;505.0
2.0;519.0
3.0;535.0
4.0;551.0
5.0;566.0
6.0;578.0
7.0;592.0
8.0;610.0
9.0;628.0
10.0;642.0
11.0;659.0
12.0;675.0
13.0;691.0
14.0;705.0
15.0;722.0
0.0;741.0
1.0;760.0
2.0;785.0
3.0;811.0
4.0;828.0
5.0;833.0
6.0;826.0
7.0;809.0
8.0;780.0
9.0;746.0
10.0;707.0
11.0;662.0
12.0;617.0
13.0;570.0
14.0;525.0
15.0;483.0
0.0;444.0
1.0;411.0
2.0;390.0
3.0;374.0
4.0;365.0
5.0;359.0
6.0;356.0
7.0;350.0
8.0;344.0
9.0;344.0
10.0;341.0
11.0;339.0
12.0;338.0
13.0;341.0
14.0;346.0
15.0;349.0
0.0;354.0
1.0;360.0
2.0;364.0
3.0;372.0
4.0;380.0
5.0;391.0
6.0;396.0
7.0;402.0
8.0;407.0
9.0;411.0
10.0;414.0
11.0;415.0
12.0;418.0
13.0;422.0
14.0;425.0
15.0;429.0
0.0;433.0
1.0;438.0
2.0;443.0
3.0;451.0
4.0;462.0
5.0;471.0
6.0;478.0
7.0;485.0
8.0;487.0
9.0;491.0
10.0;492.0
11.0;493.0
12.0;490.0
13.0;487.0
14.0;487.0
15.0;485.0
0.0;482.0
1.0;483.0
2.0;484.0
3.0;486.0
4.0;489.0
5.0;494.0
6.0;499.0
7.0;503.0
8.0;509.0
9.0;512.0
10.0;515.0
11.0;514.0
12.0;509.0
13.0;504.0
14.0;501.0
15.0;495.0
0.0;491.0
1.0;489.0
2.0;493.0
3.0;496.0
4.0;498.0
5.0;503.0
6.0;505.0
7.0;507.0
8.0;508.0
9.0;510.0
10.0;512.0
11.0;512.0
12.0;507.0
13.0;503.0
14.0;501.0
15.0;504.0
0.0;504.0
1.0;499.0
2.0;497.0
3.0;498.0
4.0;504.0
5.0;510.0
6.0;513.0
7.0;516.0
8.0;519.0
9.0;522.0
10.0;524.0
11.0;526.0
12.0;524.0
13.0;519.0
14.0;514.0
15.0;507.0
0.0;501.0
1.0;496.0
2.0;495.0
3.0;499.0
4.0;503.0
5.0;508.0
6.0;513.0
7.0;520.0
8.0;523.0
9.0;523.0
10.0;523.0
11.0;525.0
12.0;523.0
13.0;522.0
14.0;520.0
15.0;516.0
0.0;512.0
1.0;511.0
2.0;512.0
3.0;513.0
4.0;515.0
5.0;518.0
6.0;520.0
7.0;523.0
8.0;528.0
9.0;531.0
10.0;531.0
11.0;532.0
12.0;534.0
13.0;533.0
14.0;531.0
15.0;529.0
0.0;525.0
1.0;522.0
2.0;521.0
3.0;519.0
4.0;520.0
5.0;521.0
6.0;523.0
7.0;529.0
8.0;533.0
9.0;536.0
10.0;537.0
11.0;540.0
12.0;543.0
13.0;543.0
14.0;540.0
15.0;541.0
0.0;539.0
1.0;536.0
2.0;533.0
3.0;528.0
4.0;525.0
5.0;526.0
6.0;530.0
7.0;532.0
8.0;537.0
9.0;545.0
10.0;551.0
11.0;556.0
12.0;560.0
13.0;561.0
14.0;558.0
15.0;555.0
0.0;552.0
1.0;548.0
2.0;542.0
3.0;539.0
4.0;537.0
5.0;533.0
6.0;536.0
7.0;541.0
8.0;546.0
9.0;550.0
10.0;547.0
11.0;551.0
12.0;561.0
13.0;569.0
14.0;570.0
15.0;568.0
0.0;567.0
1.0;560.0
2.0;555.0
3.0;551.0
4.0;546.0
5.0;544.0
6.0;546.0
7.0;543.0
8.0;540.0
9.0;539.0
10.0;541.0
11.0;544.0
12.0;549.0
13.0;553.0
14.0;555.0
15.0;553.0
0.0;553.0
1.0;555.0
2.0;552.0
3.0;548.0
4.0;543.0
5.0;539.0
6.0;534.0
7.0;529.0
8.0;524.0
9.0;520.0
10.0;523.0
11.0;530.0
12.0;533.0
13.0;534.0
14.0;534.0
15.0;534.0
0.0;533.0
1.0;530.0
2.0;527.0
3.0;522.0
4.0;514.0
5.0;510.0
6.0;507.0
7.0;504.0
8.0;504.0
9.0;505.0
10.0;507.0
11.0;510.0
12.0;513.0
13.0;515.0
14.0;518.0
15.0;517.0
0.0;515.0
1.0;514.0
2.0;513.0
3.0;510.0
4.0;507.0
5.0;503.0
6.0;500.0
7.0;496.0
8.0;494.0
9.0;494.0
10.0;493.0
11.0;491.0
12.0;495.0
13.0;498.0
14.0;499.0
15.0;499.0
0.0;501.0
1.0;502.0
2.0;501.0
3.0;500.0
4.0;496.0
5.0;495.0
6.0;489.0
7.0;480.0
8.0;476.0
9.0;475.0
10.0;474.0
11.0;474.0
12.0;476.0
13.0;479.0
14.0;482.0
15.0;485.0
0.0;489.0
1.0;490.0
2.0;491.0
3.0;489.0
4.0;480.0
5.0;470.0
6.0;463.0
7.0;461.0
8.0;457.0
9.0;455.0
10.0;456.0
11.0;458.0
12.0;464.0
13.0;467.0
14.0;469.0
15.0;469.0
0.0;475.0
1.0;479.0
2.0;480.0
3.0;482.0
4.0;482.0
5.0;480.0
6.0;479.0
7.0;475.0
8.0;472.0
9.0;467.0
10.0;463.0
11.0;465.0
12.0;468.0
13.0;471.0
14.0;474.0
15.0;476.0
0.0;480.0
1.0;483.0
2.0;485.0
3.0;483.0
4.0;484.0
5.0;482.0
6.0;478.0
7.0;473.0
8.0;467.0
9.0;463.0
10.0;463.0
11.0;465.0
12.0;467.0
13.0;470.0
14.0;475.0
15.0;478.0
0.0;483.0
1.0;487.0
2.0;491.0
3.0;492.0
4.0;493.0
5.0;492.0
6.0;489.0
7.0;486.0
8.0;485.0
9.0;483.0
10.0;480.0
11.0;480.0
12.0;481.0
13.0;481.0
14.0;482.0
15.0;486.0
0.0;489.0
1.0;496.0
2.0;502.0
3.0;507.0
4.0;508.0
5.0;508.0
6.0;507.0
7.0;503.0
8.0;499.0
9.0;495.0
10.0;492.0
11.0;492.0
12.0;494.0
13.0;496.0
14.0;495.0
15.0;493.0
0.0;496.0
1.0;498.0
2.0;500.0
3.0;504.0
4.0;508.0
5.0;510.0
6.0;505.0
7.0;501.0
8.0;498.0
9.0;496.0
10.0;493.0
11.0;491.0
12.0;490.0
13.0;488.0
14.0;487.0
15.0;485.0
0.0;486.0
1.0;493.0
2.0;496.0
3.0;500.0
4.0;504.0
5.0;506.0
6.0;508.0
7.0;508.0
8.0;503.0
9.0;498.0
10.0;496.0
11.0;493.0
12.0;490.0
13.0;488.0
14.0;485.0
15.0;482.0
0.0;483.0
1.0;492.0
2.0;502.0
3.0;505.0
4.0;508.0
5.0;510.0
6.0;508.0
7.0;508.0
8.0;508.0
9.0;504.0
10.0;496.0
11.0;499.0
12.0;498.0
13.0;495.0
14.0;495.0
15.0;497.0
0.0;499.0
1.0;504.0
2.0;505.0
3.0;507.0
4.0;510.0
5.0;514.0
6.0;519.0
7.0;521.0
8.0;522.0
9.0;519.0
10.0;514.0
11.0;509.0
12.0;508.0
13.0;504.0
14.0;499.0
15.0;500.0
0.0;500.0
1.0;502.0
2.0;505.0
3.0;511.0
4.0;515.0
5.0;518.0
6.0;522.0
7.0;524.0
8.0;523.0
9.0;521.0
10.0;518.0
11.0;515.0
12.0;511.0
13.0;508.0
14.0;506.0
15.0;503.0
0.0;502.0
1.0;502.0
2.0;505.0
3.0;507.0
4.0;510.0
5.0;515.0
6.0;519.0
7.0;520.0
8.0;518.0
9.0;519.0
10.0;518.0
11.0;511.0
12.0;504.0
13.0;504.0
14.0;503.0
15.0;500.0
0.0;499.0
1.0;499.0
2.0;496.0
3.0;494.0
4.0;495.0
5.0;496.0
6.0;501.0
7.0;507.0
8.0;509.0
9.0;509.0
10.0;511.0
11.0;511.0
12.0;510.0
13.0;508.0
14.0;503.0
15.0;499.0
0.0;498.0
1.0;497.0
2.0;497.0
3.0;496.0
4.0;504.0
5.0;511.0
6.0;514.0
7.0;518.0
8.0;522.0
9.0;523.0
10.0;523.0
11.0;519.0
12.0;513.0
13.0;509.0
14.0;507.0
15.0;503.0
0.0;498.0
1.0;491.0
2.0;489.0
3.0;493.0
4.0;500.0
5.0;509.0
6.0;518.0
7.0;525.0
8.0;529.0
9.0;536.0
10.0;532.0
11.0;527.0
12.0;523.0
13.0;523.0
14.0;525.0
15.0;527.0
0.0;527.0
1.0;528.0
2.0;530.0
3.0;535.0
4.0;539.0
5.0;543.0
6.0;550.0
7.0;554.0
8.0;559.0
9.0;562.0
10.0;564.0
11.0;561.0
12.0;557.0
13.0;555.0
14.0;550.0
15.0;547.0
0.0;543.0
1.0;541.0
2.0;541.0
3.0;541.0
4.0;542.0
5.0;542.0
6.0;544.0
7.0;546.0
8.0;550.0
9.0;554.0
10.0;555.0
11.0;551.0
12.0;548.0
13.0;548.0
14.0;545.0
15.0;541.0
0.0;537.0
1.0;531.0
2.0;526.0
3.0;522.0
4.0;519.0
5.0;517.0
6.0;515.0
7.0;516.0
8.0;517.0
9.0;516.0
10.0;519.0
11.0;521.0
12.0;518.0
13.0;517.0
14.0;517.0
15.0;515.0
0.0;513.0
1.0;509.0
2.0;502.0
3.0;497.0
4.0;491.0
5.0;489.0
6.0;489.0
7.0;492.0
8.0;496.0
9.0;502.0
10.0;508.0
11.0;512.0
12.0;513.0
13.0;513.0
14.0;511.0
15.0;508.0
0.0;502.0
1.0;493.0
2.0;488.0
3.0;486.0
4.0;486.0
5.0;487.0
6.0;486.0
7.0;487.0
8.0;489.0
9.0;492.0
10.0;495.0
11.0;498.0
12.0;499.0
13.0;497.0
14.0;494.0
15.0;492.0
0.0;492.0
1.0;491.0
2.0;488.0
3.0;486.0
4.0;487.0
5.0;490.0
6.0;494.0
7.0;492.0
8.0;492.0
9.0;495.0
10.0;501.0
11.0;507.0
12.0;512.0
13.0;515.0
14.0;511.0
15.0;505.0
0.0;501.0
1.0;500.0
2.0;497.0
3.0;493.0
4.0;492.0
5.0;487.0
6.0;487.0
7.0;489.0
8.0;492.0
9.0;496.0
10.0;502.0
11.0;504.0
12.0;503.0
13.0;504.0
14.0;504.0
15.0;502.0
0.0;505.0
1.0;505.0
2.0;500.0
3.0;497.0
4.0;495.0
5.0;491.0
6.0;488.0
7.0;488.0
8.0;485.0
9.0;481.0
10.0;483.0
11.0;487.0
12.0;488.0
13.0;491.0
14.0;497.0
15.0;504.0
0.0;508.0
1.0;510.0
2.0;510.0
3.0;511.0
4.0;514.0
5.0;520.0
6.0;527.0
7.0;537.0
8.0;550.0
9.0;562.0
10.0;575.0
11.0;592.0
12.0;610.0
13.0;631.0
14.0;655.0
15.0;676.0
0.0;693.0
1.0;710.0
2.0;725.0
3.0;733.0
4.0;746.0
5.0;767.0
6.0;787.0
7.0;807.0
8.0;827.0
9.0;836.0
10.0;831.0
11.0;814.0
12.0;788.0
13.0;758.0
14.0;722.0
15.0;683.0
0.0;644.0
1.0;607.0
2.0;569.0
3.0;525.0
4.0;482.0
5.0;445.0
6.0;417.0
7.0;396.0
8.0;378.0
9.0;369.0
10.0;362.0
11.0;356.0
12.0;352.0
13.0;351.0
14.0;352.0
15.0;356.0
0.0;363.0
1.0;368.0
2.0;376.0
3.0;379.0
4.0;382.0
5.0;383.0
6.0;383.0
7.0;383.0
8.0;385.0
9.0;388.0
10.0;389.0
11.0;393.0
12.0;395.0
13.0;408.0
14.0;427.0
15.0;444.0
0.0;456.0
1.0;467.0
2.0;475.0
3.0;480.0
4.0;482.0
5.0;482.0
6.0;481.0
7.0;483.0
8.0;485.0
9.0;487.0
10.0;488.0
11.0;486.0
12.0;485.0
13.0;488.0
14.0;495.0
15.0;501.0
0.0;509.0
1.0;515.0
2.0;519.0
3.0;519.0
4.0;520.0
5.0;521.0
6.0;518.0
7.0;513.0
8.0;507.0
9.0;504.0
10.0;503.0
11.0;505.0
12.0;511.0
13.0;517.0
14.0;522.0
15.0;523.0
0.0;524.0
1.0;527.0
2.0;530.0
3.0;530.0
4.0;530.0
5.0;528.0
6.0;525.0
7.0;521.0
8.0;519.0
9.0;515.0
10.0;511.0
11.0;512.0
12.0;514.0
13.0;513.0
14.0;518.0
15.0;521.0
0.0;527.0
1.0;533.0
2.0;537.0
3.0;542.0
4.0;543.0
5.0;543.0
6.0;540.0
7.0;536.0
8.0;531.0
9.0;529.0
10.0;527.0
11.0;525.0
12.0;524.0
13.0;526.0
14.0;527.0
15.0;527.0
0.0;528.0
1.0;529.0
2.0;531.0
3.0;536.0
4.0;538.0
5.0;539.0
6.0;540.0
7.0;539.0
8.0;533.0
9.0;528.0
10.0;524.0
11.0;519.0
12.0;517.0
13.0;518.0
14.0;519.0
15.0;522.0
0.0;524.0
1.0;527.0
2.0;528.0
3.0;532.0
4.0;537.0
5.0;540.0
6.0;541.0
7.0;543.0
8.0;546.0
9.0;543.0
10.0;540.0
11.0;536.0
12.0;533.0
13.0;531.0
14.0;531.0
15.0;531.0
0.0;529.0
1.0;533.0
2.0;538.0
3.0;542.0
4.0;548.0
5.0;551.0
6.0;551.0
7.0;551.0
8.0;550.0
9.0;545.0
10.0;538.0
11.0;533.0
12.0;526.0
13.0;524.0
14.0;526.0
15.0;529.0
0.0;531.0
1.0;535.0
2.0;542.0
3.0;546.0
4.0;548.0
5.0;551.0
6.0;551.0
7.0;552.0
8.0;551.0
9.0;546.0
10.0;542.0
11.0;538.0
12.0;537.0
13.0;535.0
14.0;534.0
15.0;533.0
0.0;535.0
1.0;536.0
2.0;538.0
3.0;541.0
4.0;546.0
5.0;551.0
6.0;553.0
7.0;559.0
8.0;565.0
9.0;569.0
10.0;570.0
11.0;567.0
12.0;563.0
13.0;562.0
14.0;556.0
15.0;552.0
0.0;551.0
1.0;550.0
2.0;550.0
3.0;553.0
4.0;558.0
5.0;560.0
6.0;563.0
7.0;563.0
8.0;564.0
9.0;565.0
10.0;565.0
11.0;561.0
12.0;557.0
13.0;551.0
14.0;545.0
15.0;541.0
0.0;538.0
1.0;536.0
2.0;534.0
3.0;534.0
4.0;539.0
5.0;542.0
6.0;544.0
7.0;551.0
8.0;556.0
9.0;556.0
10.0;556.0
11.0;554.0
12.0;552.0
13.0;548.0
14.0;541.0
15.0;532.0
0.0;524.0
1.0;517.0
2.0;512.0
3.0;513.0
4.0;513.0
5.0;517.0
6.0;521.0
7.0;525.0
8.0;528.0
9.0;530.0
10.0;531.0
11.0;533.0
12.0;532.0
13.0;526.0
14.0;519.0
15.0;513.0
0.0;510.0
1.0;505.0
2.0;502.0
3.0;504.0
4.0;501.0
5.0;503.0
6.0;506.0
7.0;509.0
8.0;515.0
9.0;517.0
10.0;516.0
11.0;512.0
12.0;507.0
13.0;502.0
14.0;498.0
15.0;492.0
0.0;486.0
1.0;477.0
2.0;470.0
3.0;473.0
4.0;474.0
5.0;477.0
6.0;484.0
7.0;494.0
8.0;499.0
9.0;501.0
10.0;504.0
11.0;506.0
12.0;504.0
13.0;501.0
14.0;495.0
15.0;487.0
0.0;481.0
1.0;476.0
2.0;471.0
3.0;472.0
4.0;471.0
5.0;472.0
6.0;475.0
7.0;480.0
8.0;481.0
9.0;484.0
10.0;487.0
11.0;487.0
12.0;486.0
13.0;485.0
14.0;483.0
15.0;479.0
0.0;477.0
1.0;474.0
2.0;470.0
3.0;468.0
4.0;468.0
5.0;469.0
6.0;471.0
7.0;477.0
8.0;482.0
9.0;487.0
10.0;494.0
11.0;495.0
12.0;492.0
13.0;492.0
14.0;491.0
15.0;489.0
0.0;486.0
1.0;483.0
2.0;479.0
3.0;477.0
4.0;476.0
5.0;471.0
6.0;467.0
7.0;465.0
8.0;470.0
9.0;476.0
10.0;481.0
11.0;483.0
12.0;490.0
13.0;496.0
14.0;498.0
15.0;499.0
0.0;495.0
1.0;489.0
2.0;483.0
3.0;477.0
4.0;474.0
5.0;475.0
6.0;474.0
7.0;473.0
8.0;477.0
9.0;482.0
10.0;486.0
11.0;493.0
12.0;501.0
13.0;503.0
14.0;500.0
15.0;496.0
0.0;492.0
1.0;490.0
2.0;486.0
3.0;481.0
4.0;478.0
5.0;476.0
6.0;476.0
7.0;472.0
8.0;472.0
9.0;473.0
10.0;486.0
11.0;495.0
12.0;499.0
13.0;504.0
14.0;504.0
15.0;502.0
0.0;499.0
1.0;494.0
2.0;490.0
3.0;489.0
4.0;483.0
5.0;477.0
6.0;476.0
7.0;476.0
8.0;478.0
9.0;482.0
10.0;487.0
11.0;495.0
12.0;501.0
13.0;503.0
14.0;503.0
15.0;500.0
0.0;499.0
1.0;497.0
2.0;493.0
3.0;489.0
4.0;482.0
5.0;473.0
6.0;468.0
7.0;467.0
8.0;470.0
9.0;477.0
10.0;484.0
11.0;492.0
12.0;496.0
13.0;499.0
14.0;500.0
15.0;499.0
0.0;495.0
1.0;489.0
2.0;485.0
3.0;486.0
4.0;495.0
5.0;500.0
6.0;495.0
7.0;493.0
8.0;494.0
9.0;493.0
10.0;491.0
11.0;492.0
12.0;496.0
13.0;498.0
14.0;503.0
15.0;505.0
0.0;508.0
1.0;509.0
2.0;509.0
3.0;508.0
4.0;498.0
5.0;495.0
6.0;493.0
7.0;487.0
8.0;484.0
9.0;483.0
10.0;482.0
11.0;482.0
12.0;486.0
13.0;489.0
14.0;492.0
15.0;495.0
0.0;495.0
1.0;494.0
2.0;493.0
3.0;492.0
4.0;489.0
5.0;485.0
6.0;485.0
7.0;484.0
8.0;480.0
9.0;481.0
10.0;483.0
11.0;486.0
12.0;491.0
13.0;497.0
14.0;502.0
15.0;504.0
0.0;509.0
1.0;510.0
2.0;509.0
3.0;512.0
4.0;512.0
5.0;511.0
6.0;509.0
7.0;506.0
8.0;503.0
9.0;499.0
10.0;496.0
11.0;490.0
12.0;487.0
13.0;488.0
14.0;492.0
15.0;497.0
0.0;505.0
1.0;512.0
2.0;515.0
3.0;513.0
4.0;503.0
5.0;496.0
6.0;502.0
7.0;506.0
8.0;503.0
9.0;497.0
10.0;493.0
11.0;489.0
12.0;488.0
13.0;493.0
14.0;500.0
15.0;507.0
0.0;512.0
1.0;519.0
2.0;528.0
3.0;534.0
4.0;536.0
5.0;536.0
6.0;532.0
7.0;525.0
8.0;518.0
9.0;512.0
10.0;508.0
11.0;506.0
12.0;505.0
13.0;507.0
14.0;508.0
15.0;509.0
0.0;513.0
1.0;517.0
2.0;520.0
3.0;521.0
4.0;522.0
5.0;522.0
6.0;521.0
7.0;518.0
8.0;513.0
9.0;512.0
10.0;509.0
11.0;504.0
12.0;501.0
13.0;500.0
14.0;498.0
15.0;501.0
0.0;504.0
1.0;503.0
2.0;506.0
3.0;509.0
4.0;511.0
5.0;513.0
6.0;512.0
7.0;509.0
8.0;503.0
9.0;496.0
10.0;487.0
11.0;480.0
12.0;475.0
13.0;472.0
14.0;470.0
15.0;469.0
0.0;473.0
1.0;476.0
2.0;478.0
3.0;483.0
4.0;485.0
5.0;486.0
6.0;481.0
7.0;480.0
8.0;479.0
9.0;473.0
10.0;472.0
11.0;465.0
12.0;455.0
13.0;452.0
14.0;454.0
15.0;455.0
0.0;463.0
1.0;467.0
2.0;472.0
3.0;478.0
4.0;481.0
5.0;486.0
6.0;486.0
7.0;485.0
8.0;484.0
9.0;480.0
10.0;477.0
11.0;477.0
12.0;477.0
13.0;479.0
14.0;484.0
15.0;488.0
0.0;487.0
1.0;487.0
2.0;489.0
3.0;492.0
4.0;495.0
5.0;497.0
6.0;496.0
7.0;496.0
8.0;496.0
9.0;494.0
10.0;489.0
11.0;486.0
12.0;483.0
13.0;481.0
14.0;482.0
15.0;485.0
0.0;487.0
1.0;489.0
2.0;493.0
3.0;498.0
4.0;503.0
5.0;508.0
6.0;509.0
7.0;509.0
8.0;508.0
9.0;507.0
10.0;503.0
11.0;498.0
12.0;497.0
13.0;494.0
14.0;492.0
15.0;492.0
0.0;491.0
1.0;490.0
2.0;489.0
3.0;490.0
4.0;493.0
5.0;496.0
6.0;497.0
7.0;498.0
8.0;498.0
9.0;494.0
10.0;488.0
11.0;482.0
12.0;476.0
13.0;473.0
14.0;471.0
15.0;472.0
0.0;477.0
1.0;481.0
2.0;487.0
3.0;497.0
4.0;506.0
5.0;518.0
6.0;533.0
7.0;550.0
8.0;566.0
9.0;583.0
10.0;599.0
11.0;612.0
12.0;628.0
13.0;643.0
14.0;656.0
15.0;668.0
0.0;681.0
1.0;696.0
2.0;713.0
3.0;734.0
4.0;759.0
5.0;788.0
6.0;815.0
7.0;834.0
8.0;840.0
9.0;836.0
10.0;818.0
11.0;790.0
12.0;755.0
13.0;714.0
14.0;669.0
15.0;622.0
0.0;576.0
1.0;534.0
2.0;492.0
3.0;453.0
4.0;425.0
5.0;406.0
6.0;392.0
7.0;383.0
8.0;377.0
9.0;370.0
10.0;366.0
11.0;364.0
12.0;362.0
13.0;358.0
14.0;356.0
15.0;357.0
0.0;362.0
1.0;365.0
2.0;370.0
3.0;376.0
4.0;381.0
5.0;385.0
6.0;391.0
7.0;398.0
8.0;404.0
9.0;409.0
10.0;410.0
11.0;413.0
12.0;416.0
13.0;417.0
14.0;420.0
15.0;424.0
0.0;429.0
1.0;432.0
2.0;435.0
3.0;439.0
4.0;443.0
5.0;451.0
6.0;460.0
7.0;469.0
8.0;477.0
9.0;485.0
10.0;492.0
11.0;494.0
12.0;496.0
13.0;496.0
14.0;494.0
15.0;491.0
0.0;487.0
1.0;484.0
2.0;483.0
3.0;487.0
4.0;488.0
5.0;487.0
6.0;487.0
7.0;492.0
8.0;497.0
9.0;502.0
10.0;505.0
11.0;507.0
12.0;506.0
13.0;508.0
14.0;505.0
15.0;499.0
0.0;495.0
1.0;496.0
2.0;496.0
3.0;495.0
4.0;493.0
5.0;492.0
6.0;494.0
7.0;497.0
8.0;498.0
9.0;502.0
10.0;505.0
11.0;509.0
12.0;512.0
13.0;516.0
14.0;515.0
15.0;510.0
0.0;502.0
1.0;494.0
2.0;486.0
3.0;483.0
4.0;482.0
5.0;483.0
6.0;488.0
7.0;496.0
8.0;503.0
9.0;509.0
10.0;515.0
11.0;521.0
12.0;524.0
13.0;527.0
14.0;529.0
15.0;530.0
0.0;526.0
1.0;520.0
2.0;515.0
3.0;512.0
4.0;508.0
5.0;508.0
6.0;508.0
7.0;509.0
8.0;512.0
9.0;514.0
10.0;518.0
11.0;523.0
12.0;526.0
13.0;526.0
14.0;526.0
15.0;525.0
0.0;524.0
1.0;521.0
2.0;518.0
3.0;514.0
4.0;508.0
5.0;509.0
6.0;511.0
7.0;511.0
8.0;514.0
9.0;519.0
10.0;524.0
11.0;527.0
12.0;535.0
13.0;542.0
14.0;546.0
15.0;547.0
0.0;547.0
1.0;543.0
2.0;539.0
3.0;537.0
4.0;533.0
5.0;527.0
6.0;527.0
7.0;529.0
8.0;529.0
9.0;530.0
10.0;537.0
11.0;541.0
12.0;546.0
13.0;551.0
14.0;555.0
15.0;553.0
0.0;551.0
1.0;550.0
2.0;548.0
3.0;545.0
4.0;542.0
5.0;537.0
6.0;534.0
7.0;535.0
8.0;535.0
9.0;535.0
10.0;539.0
11.0;544.0
12.0;547.0
13.0;553.0
14.0;559.0
15.0;561.0
0.0;564.0
1.0;566.0
2.0;563.0
3.0;556.0
4.0;546.0
5.0;543.0
6.0;541.0
7.0;539.0
8.0;540.0
9.0;542.0
10.0;543.0
11.0;547.0
12.0;553.0
13.0;557.0
14.0;561.0
15.0;561.0
0.0;559.0
1.0;558.0
2.0;554.0
3.0;550.0
4.0;542.0
5.0;537.0
6.0;535.0
7.0;535.0
8.0;535.0
9.0;536.0
10.0;535.0
11.0;537.0
12.0;539.0
13.0;539.0
14.0;542.0
15.0;544.0
0.0;543.0
1.0;542.0
2.0;537.0
3.0;532.0
4.0;528.0
5.0;526.0
6.0;524.0
7.0;519.0
8.0;516.0
9.0;515.0
10.0;515.0
11.0;516.0
12.0;519.0
13.0;523.0
14.0;527.0
15.0;529.0
0.0;534.0
1.0;537.0
2.0;537.0
3.0;537.0
4.0;534.0
5.0;528.0
6.0;523.0
7.0;520.0
8.0;518.0
9.0;516.0
10.0;515.0
11.0;517.0
12.0;518.0
13.0;519.0
14.0;523.0
15.0;528.0
0.0;533.0
1.0;537.0
2.0;535.0
3.0;527.0
4.0;524.0
5.0;518.0
6.0;508.0
7.0;502.0
8.0;495.0
9.0;489.0
10.0;486.0
11.0;485.0
12.0;484.0
13.0;485.0
14.0;490.0
15.0;497.0
0.0;498.0
1.0;500.0
2.0;501.0
3.0;499.0
4.0;498.0
5.0;496.0
6.0;491.0
7.0;487.0
8.0;481.0
9.0;477.0
10.0;473.0
11.0;471.0
12.0;469.0
13.0;467.0
14.0;470.0
15.0;473.0
0.0;478.0
1.0;481.0
2.0;482.0
3.0;482.0
4.0;481.0
5.0;479.0
6.0;476.0
7.0;473.0
8.0;469.0
9.0;467.0
10.0;465.0
11.0;465.0
12.0;466.0
13.0;467.0
14.0;472.0
15.0;479.0
0.0;483.0
1.0;486.0
2.0;486.0
3.0;487.0
4.0;486.0
5.0;487.0
6.0;488.0
7.0;486.0
8.0;481.0
9.0;478.0
10.0;473.0
11.0;467.0
12.0;465.0
13.0;465.0
14.0;467.0
15.0;470.0
0.0;477.0
1.0;483.0
2.0;488.0
3.0;491.0
4.0;494.0
5.0;496.0
6.0;498.0
7.0;497.0
8.0;493.0
9.0;487.0
10.0;483.0
11.0;477.0
12.0;473.0
13.0;473.0
14.0;474.0
15.0;474.0
0.0;479.0
1.0;487.0
2.0;493.0
3.0;500.0
4.0;505.0
5.0;509.0
6.0;509.0
7.0;505.0
8.0;502.0
9.0;495.0
10.0;491.0
11.0;489.0
12.0;486.0
13.0;483.0
14.0;484.0
15.0;485.0
0.0;486.0
1.0;489.0
2.0;492.0
3.0;496.0
4.0;502.0
5.0;509.0
6.0;512.0
7.0;509.0
8.0;507.0
9.0;504.0
10.0;503.0
11.0;501.0
12.0;496.0
13.0;492.0
14.0;492.0
15.0;492.0
0.0;495.0
1.0;499.0
2.0;506.0
3.0;505.0
4.0;505.0
5.0;507.0
6.0;508.0
7.0;512.0
8.0;517.0
9.0;519.0
10.0;516.0
11.0;515.0
12.0;512.0
13.0;508.0
14.0;506.0
15.0;506.0
0.0;504.0
1.0;504.0
2.0;507.0
3.0;512.0
4.0;516.0
5.0;520.0
6.0;520.0
7.0;519.0
8.0;516.0
9.0;514.0
10.0;510.0
11.0;504.0
12.0;499.0
13.0;497.0
14.0;493.0
15.0;492.0
0.0;494.0
1.0;496.0
2.0;497.0
3.0;499.0
4.0;503.0
5.0;508.0
6.0;515.0
7.0;518.0
8.0;519.0
9.0;520.0
10.0;519.0
11.0;513.0
12.0;510.0
13.0;507.0
14.0;503.0
15.0;503.0
0.0;502.0
1.0;501.0
2.0;504.0
3.0;504.0
4.0;507.0
5.0;509.0
6.0;515.0
7.0;520.0
8.0;521.0
9.0;520.0
10.0;521.0
11.0;521.0
12.0;520.0
13.0;516.0
14.0;511.0
15.0;505.0
0.0;501.0
1.0;499.0
2.0;499.0
3.0;504.0
4.0;512.0
5.0;520.0
6.0;527.0
7.0;532.0
8.0;535.0
9.0;537.0
10.0;537.0
11.0;536.0
12.0;534.0
13.0;531.0
14.0;527.0
15.0;524.0
0.0;519.0
1.0;518.0
2.0;520.0
3.0;520.0
4.0;521.0
5.0;522.0
6.0;527.0
7.0;526.0
8.0;529.0
9.0;532.0
10.0;534.0
11.0;538.0
12.0;538.0
13.0;536.0
14.0;534.0
15.0;531.0
0.0;525.0
1.0;520.0
2.0;514.0
3.0;510.0
4.0;510.0
5.0;513.0
6.0;518.0
7.0;525.0
8.0;530.0
9.0;536.0
10.0;537.0
11.0;537.0
12.0;539.0
13.0;539.0
14.0;536.0
15.0;532.0
0.0;529.0
1.0;527.0
2.0;527.0
3.0;528.0
4.0;533.0
5.0;535.0
6.0;540.0
7.0;545.0
8.0;550.0
9.0;555.0
10.0;559.0
11.0;560.0
12.0;556.0
13.0;554.0
14.0;548.0
15.0;544.0
0.0;537.0
1.0;529.0
2.0;521.0
3.0;516.0
4.0;513.0
5.0;514.0
6.0;513.0
7.0;515.0
8.0;521.0
9.0;526.0
10.0;536.0
11.0;541.0
12.0;540.0
13.0;536.0
14.0;532.0
15.0;524.0
0.0;516.0
1.0;508.0
2.0;503.0
3.0;496.0
4.0;492.0
5.0;487.0
6.0;485.0
7.0;486.0
8.0;489.0
9.0;492.0
10.0;496.0
11.0;501.0
12.0;503.0
13.0;501.0
14.0;499.0
15.0;497.0
0.0;494.0
1.0;490.0
2.0;483.0
3.0;476.0
4.0;473.0
5.0;474.0
6.0;474.0
7.0;472.0
8.0;475.0
9.0;480.0
10.0;487.0
11.0;493.0
12.0;495.0
13.0;494.0
14.0;492.0
15.0;485.0
0.0;477.0
1.0;467.0
2.0;459.0
3.0;460.0
4.0;466.0
5.0;472.0
6.0;477.0
7.0;477.0
8.0;478.0
9.0;484.0
10.0;488.0
11.0;493.0
12.0;496.0
13.0;497.0
14.0;496.0
15.0;496.0
0.0;495.0
1.0;490.0
2.0;483.0
3.0;477.0
4.0;474.0
5.0;469.0
6.0;466.0
7.0;468.0
8.0;468.0
9.0;471.0
10.0;474.0
11.0;476.0
12.0;480.0
13.0;489.0
14.0;494.0
15.0;495.0
0.0;490.0
1.0;485.0
2.0;478.0
3.0;471.0
4.0;468.0
5.0;467.0
6.0;467.0
7.0;468.0
8.0;468.0
9.0;469.0
10.0;472.0
11.0;478.0
12.0;484.0
13.0;488.0
14.0;493.0
15.0;495.0
0.0;495.0
1.0;495.0
2.0;496.0
3.0;492.0
4.0;485.0
5.0;481.0
6.0;478.0
7.0;481.0
8.0;485.0
9.0;480.0
10.0;476.0
11.0;477.0
12.0;481.0
13.0;487.0
14.0;491.0
15.0;497.0
0.0;503.0
1.0;510.0
2.0;516.0
3.0;521.0
4.0;528.0
5.0;539.0
6.0;547.0
7.0;556.0
8.0;573.0
9.0;595.0
10.0;615.0
11.0;633.0
12.0;655.0
13.0;677.0
14.0;696.0
15.0;716.0
0.0;736.0
1.0;762.0
2.0;787.0
3.0;810.0
4.0;828.0
5.0;839.0
6.0;840.0
7.0;831.0
8.0;815.0
9.0;790.0
10.0;755.0
11.0;719.0
12.0;681.0
13.0;643.0
14.0;602.0
15.0;559.0
0.0;521.0
1.0;485.0
2.0;455.0
3.0;432.0
4.0;414.0
5.0;400.0
6.0;385.0
7.0;374.0
8.0;366.0
9.0;359.0
10.0;351.0
11.0;349.0
12.0;350.0
13.0;358.0
14.0;369.0
15.0;379.0
0.0;382.0
1.0;386.0
2.0;396.0
3.0;400.0
4.0;395.0
5.0;391.0
6.0;392.0
7.0;391.0
8.0;390.0
9.0;393.0
10.0;398.0
11.0;405.0
12.0;411.0
13.0;419.0
14.0;427.0
15.0;432.0
0.0;440.0
1.0;447.0
2.0;454.0
3.0;461.0
4.0;465.0
5.0;474.0
6.0;478.0
7.0;480.0
8.0;479.0
9.0;477.0
10.0;475.0
11.0;475.0
12.0;474.0
13.0;477.0
14.0;482.0
15.0;488.0
0.0;497.0
1.0;504.0
2.0;512.0
3.0;515.0
4.0;515.0
5.0;514.0
6.0;512.0
7.0;508.0
8.0;504.0
9.0;501.0
10.0;497.0
11.0;495.0
12.0;496.0
13.0;498.0
14.0;500.0
15.0;504.0
0.0;508.0
1.0;514.0
2.0;519.0
3.0;524.0
4.0;526.0
5.0;528.0
6.0;530.0
7.0;528.0
8.0;524.0
9.0;518.0
10.0;511.0
11.0;508.0
12.0;508.0
13.0;506.0
14.0;505.0
15.0;506.0
0.0;510.0
1.0;514.0
2.0;519.0
3.0;523.0
4.0;523.0
5.0;522.0
6.0;519.0
7.0;513.0
8.0;507.0
9.0;503.0
10.0;498.0
11.0;494.0
12.0;489.0
13.0;488.0
14.0;490.0
15.0;491.0
0.0;496.0
1.0;501.0
2.0;508.0
3.0;515.0
4.0;519.0
5.0;523.0
6.0;525.0
7.0;525.0
8.0;521.0
9.0;522.0
10.0;522.0
11.0;518.0
12.0;514.0
13.0;512.0
14.0;510.0
15.0;509.0
0.0;510.0
1.0;513.0
2.0;517.0
3.0;521.0
4.0;525.0
5.0;530.0
6.0;532.0
7.0;532.0
8.0;531.0
9.0;526.0
10.0;522.0
11.0;520.0
12.0;517.0
13.0;516.0
14.0;516.0
15.0;518.0
0.0;519.0
1.0;521.0
2.0;528.0
3.0;534.0
4.0;540.0
5.0;544.0
6.0;547.0
7.0;548.0
8.0;547.0
9.0;546.0
10.0;542.0
11.0;532.0
12.0;525.0
13.0;520.0
14.0;519.0
15.0;518.0
0.0;519.0
1.0;522.0
2.0;527.0
3.0;528.0
4.0;528.0
5.0;533.0
6.0;538.0
7.0;540.0
8.0;540.0
9.0;538.0
10.0;536.0
11.0;532.0
12.0;530.0
13.0;526.0
14.0;525.0
15.0;525.0
0.0;527.0
1.0;534.0
2.0;536.0
3.0;539.0
4.0;541.0
5.0;543.0
6.0;542.0
7.0;538.0
8.0;537.0
9.0;542.0
10.0;542.0
11.0;536.0
12.0;529.0
13.0;525.0
14.0;524.0
15.0;524.0
0.0;525.0
1.0;525.0
2.0;526.0
3.0;529.0
4.0;532.0
5.0;538.0
6.0;542.0
7.0;547.0
8.0;548.0
9.0;546.0
10.0;544.0
11.0;544.0
12.0;539.0
13.0;532.0
14.0;526.0
15.0;521.0
0.0;517.0
1.0;516.0
2.0;515.0
3.0;515.0
4.0;518.0
5.0;524.0
6.0;528.0
7.0;531.0
8.0;532.0
9.0;529.0
10.0;528.0
11.0;527.0
12.0;526.0
13.0;522.0
14.0;516.0
15.0;511.0
0.0;510.0
1.0;508.0
2.0;505.0
3.0;504.0
4.0;504.0
5.0;506.0
6.0;508.0
7.0;508.0
8.0;511.0
9.0;514.0
10.0;519.0
11.0;521.0
12.0;519.0
13.0;512.0
14.0;504.0
15.0;498.0
0.0;495.0
1.0;493.0
2.0;493.0
3.0;494.0
4.0;492.0
5.0;492.0
6.0;492.0
7.0;492.0
8.0;496.0
9.0;498.0
10.0;498.0
11.0;493.0
12.0;494.0
13.0;490.0
14.0;483.0
15.0;478.0
0.0;475.0
1.0;473.0
2.0;471.0
3.0;472.0
4.0;472.0
5.0;474.0
6.0;478.0
7.0;481.0
8.0;483.0
9.0;485.0
10.0;487.0
11.0;488.0
12.0;488.0
13.0;487.0
14.0;480.0
15.0;470.0
0.0;464.0
1.0;463.0
2.0;460.0
3.0;460.0
4.0;459.0
5.0;458.0
6.0;460.0
7.0;467.0
8.0;476.0
9.0;482.0
10.0;484.0
11.0;485.0
12.0;487.0
13.0;486.0
14.0;482.0
15.0;478.0
0.0;470.0
1.0;467.0
2.0;462.0
3.0;457.0
4.0;456.0
5.0;458.0
6.0;464.0
7.0;469.0
8.0;475.0
9.0;479.0
10.0;482.0
11.0;487.0
12.0;487.0
13.0;490.0
14.0;492.0
15.0;488.0
0.0;480.0
1.0;474.0
2.0;471.0
3.0;466.0
4.0;463.0
5.0;462.0
6.0;463.0
7.0;466.0
8.0;471.0
9.0;472.0
10.0;475.0
11.0;483.0
12.0;489.0
13.0;493.0
14.0;492.0
15.0;491.0
0.0;488.0
1.0;485.0
2.0;485.0
3.0;487.0
4.0;487.0
5.0;487.0
6.0;487.0
7.0;486.0
8.0;484.0
9.0;485.0
10.0;487.0
11.0;492.0
12.0;496.0
13.0;496.0
14.0;495.0
15.0;494.0
0.0;492.0
1.0;485.0
2.0;477.0
3.0;472.0
4.0;466.0
5.0;465.0
6.0;467.0
7.0;472.0
8.0;476.0
9.0;478.0
10.0;483.0
11.0;485.0
12.0;487.0
13.0;492.0
14.0;499.0
15.0;504.0
0.0;507.0
1.0;508.0
2.0;506.0
3.0;504.0
4.0;503.0
5.0;501.0
6.0;497.0
7.0;496.0
8.0;496.0
9.0;496.0
10.0;497.0
11.0;502.0
12.0;503.0
13.0;502.0
14.0;505.0
15.0;506.0
0.0;505.0
1.0;502.0
2.0;499.0
3.0;496.0
4.0;493.0
5.0;489.0
6.0;487.0
7.0;487.0
8.0;487.0
9.0;491.0
10.0;492.0
11.0;494.0
12.0;496.0
13.0;501.0
14.0;509.0
15.0;514.0
0.0;517.0
1.0;518.0
2.0;517.0
3.0;511.0
4.0;513.0
5.0;516.0
6.0;511.0
7.0;506.0
8.0;502.0
9.0;500.0
10.0;499.0
11.0;499.0
12.0;502.0
13.0;504.0
14.0;506.0
15.0;507.0
0.0;510.0
1.0;511.0
2.0;510.0
3.0;510.0
4.0;508.0
5.0;505.0
6.0;500.0
7.0;497.0
8.0;494.0
9.0;494.0
10.0;495.0
11.0;496.0
12.0;501.0
13.0;504.0
14.0;508.0
15.0;513.0
0.0;518.0
1.0;521.0
2.0;523.0
3.0;523.0
4.0;519.0
5.0;515.0
6.0;513.0
7.0;510.0
8.0;508.0
9.0;512.0
10.0;513.0
11.0;515.0
12.0;518.0
13.0;521.0
14.0;524.0
15.0;524.0
0.0;527.0
1.0;528.0
2.0;528.0
3.0;533.0
4.0;536.0
5.0;536.0
6.0;530.0
7.0;525.0
8.0;521.0
9.0;521.0
10.0;519.0
11.0;516.0
12.0;516.0
13.0;519.0
14.0;521.0
15.0;528.0
0.0;536.0
1.0;543.0
2.0;544.0
3.0;543.0
4.0;542.0
5.0;541.0
6.0;541.0
7.0;538.0
8.0;537.0
9.0;536.0
10.0;535.0
11.0;537.0
12.0;540.0
13.0;543.0
14.0;546.0
15.0;550.0
0.0;553.0
1.0;556.0
2.0;557.0
3.0;555.0
4.0;552.0
5.0;550.0
6.0;546.0
7.0;539.0
8.0;533.0
9.0;529.0
10.0;526.0
11.0;523.0
12.0;521.0
13.0;522.0
14.0;524.0
15.0;527.0
0.0;529.0
1.0;532.0
2.0;536.0
3.0;539.0
4.0;539.0
5.0;537.0
6.0;531.0
7.0;524.0
8.0;520.0
9.0;515.0
10.0;510.0
11.0;505.0
12.0;504.0
13.0;501.0
14.0;497.0
15.0;495.0
0.0;496.0
1.0;499.0
2.0;501.0
3.0;503.0
4.0;504.0
5.0;500.0
6.0;498.0
7.0;496.0
8.0;492.0
9.0;487.0
10.0;483.0
11.0;481.0
12.0;480.0
13.0;480.0
14.0;481.0
15.0;483.0
0.0;488.0
1.0;495.0
2.0;498.0
3.0;502.0
4.0;504.0
5.0;504.0
6.0;503.0
7.0;500.0
8.0;492.0
9.0;484.0
10.0;480.0
11.0;477.0
12.0;474.0
13.0;474.0
14.0;474.0
15.0;477.0
0.0;485.0
1.0;493.0
2.0;499.0
3.0;500.0
4.0;499.0
5.0;498.0
6.0;496.0
7.0;497.0
8.0;497.0
9.0;493.0
10.0;490.0
11.0;487.0
12.0;479.0
13.0;474.0
14.0;473.0
15.0;474.0
0.0;476.0
1.0;482.0
2.0;489.0
3.0;495.0
4.0;498.0
5.0;504.0
6.0;505.0
7.0;502.0
8.0;498.0
9.0;496.0
10.0;490.0
11.0;487.0
12.0;484.0
13.0;485.0
14.0;482.0
15.0;480.0
0.0;478.0
1.0;479.0
2.0;483.0
3.0;489.0
4.0;495.0
5.0;502.0
6.0;507.0
7.0;509.0
8.0;512.0
9.0;508.0
10.0;499.0
11.0;490.0
12.0;483.0
13.0;478.0
14.0;472.0
15.0;467.0
0.0;462.0
1.0;460.0
2.0;460.0
3.0;463.0
4.0;468.0
5.0;474.0
6.0;480.0
7.0;487.0
8.0;492.0
9.0;498.0
10.0;505.0
11.0;512.0
12.0;519.0
13.0;529.0
14.0;540.0
15.0;556.0
0.0;573.0
1.0;591.0
2.0;610.0
3.0;632.0
4.0;658.0
5.0;681.0
6.0;705.0
7.0;726.0
8.0;746.0
9.0;765.0
10.0;786.0
11.0;808.0
12.0;826.0
13.0;836.0
14.0;835.0
15.0;826.0
0.0;805.0
1.0;778.0
2.0;748.0
3.0;712.0
4.0;674.0
5.0;633.0
6.0;595.0
7.0;560.0
8.0;523.0
9.0;492.0
10.0;465.0
11.0;443.0
12.0;418.0
13.0;397.0
14.0;381.0
15.0;369.0
0.0;359.0
1.0;353.0
2.0;351.0
3.0;352.0
4.0;355.0
5.0;362.0
6.0;370.0
7.0;384.0
8.0;400.0
9.0;411.0
10.0;414.0
11.0;417.0
12.0;416.0
13.0;415.0
14.0;415.0
15.0;414.0
0.0;411.0
1.0;408.0
2.0;409.0
3.0;413.0
4.0;418.0
5.0;426.0
6.0;437.0
7.0;446.0
8.0;456.0
9.0;464.0
10.0;468.0
11.0;473.0
12.0;479.0
13.0;482.0
14.0;479.0
15.0;474.0
0.0;472.0
1.0;469.0
2.0;466.0
3.0;468.0
4.0;472.0
5.0;478.0
6.0;486.0
7.0;494.0
8.0;500.0
9.0;506.0
10.0;508.0
11.0;511.0
12.0;512.0
13.0;510.0
14.0;508.0
15.0;505.0
0.0;503.0
1.0;501.0
2.0;497.0
3.0;496.0
4.0;496.0
5.0;495.0
6.0;498.0
7.0;504.0
8.0;509.0
9.0;512.0
10.0;514.0
11.0;518.0
12.0;520.0
13.0;521.0
14.0;522.0
15.0;521.0
0.0;517.0
1.0;520.0
2.0;519.0
3.0;513.0
4.0;513.0
5.0;514.0
6.0;513.0
7.0;517.0
8.0;527.0
9.0;531.0
10.0;530.0
11.0;530.0
12.0;528.0
13.0;527.0
14.0;527.0
15.0;521.0
0.0;514.0
1.0;507.0
2.0;502.0
3.0;503.0
4.0;505.0
5.0;505.0
6.0;508.0
7.0;514.0
8.0;524.0
9.0;529.0
10.0;532.0
11.0;537.0
12.0;541.0
13.0;542.0
14.0;541.0
15.0;540.0
0.0;535.0
1.0;528.0
2.0;522.0
3.0;520.0
4.0;518.0
5.0;519.0
6.0;524.0
7.0;529.0
8.0;535.0
9.0;541.0
10.0;547.0
11.0;551.0
12.0;556.0
13.0;559.0
14.0;559.0
15.0;558.0
0.0;553.0
1.0;549.0
2.0;550.0
3.0;553.0
4.0;550.0
5.0;544.0
6.0;537.0
7.0;530.0
8.0;527.0
9.0;532.0
10.0;539.0
11.0;544.0
12.0;551.0
13.0;551.0
14.0;551.0
15.0;551.0
0.0;548.0
1.0;544.0
2.0;537.0
3.0;532.0
4.0;528.0
5.0;524.0
6.0;525.0
7.0;530.0
8.0;534.0
9.0;539.0
10.0;547.0
11.0;552.0
12.0;551.0
13.0;548.0
14.0;551.0
15.0;551.0
0.0;548.0
1.0;548.0
2.0;552.0
3.0;552.0
4.0;549.0
5.0;547.0
6.0;544.0
7.0;543.0
8.0;542.0
9.0;541.0
10.0;544.0
11.0;550.0
12.0;554.0
13.0;556.0
14.0;561.0
15.0;562.0
0.0;561.0
1.0;560.0
2.0;559.0
3.0;556.0
4.0;551.0
5.0;545.0
6.0;539.0
7.0;537.0
8.0;540.0
9.0;543.0
10.0;547.0
11.0;547.0
12.0;550.0
13.0;555.0
14.0;559.0
15.0;562.0
0.0;564.0
1.0;567.0
2.0;564.0
3.0;561.0
4.0;555.0
5.0;551.0
6.0;546.0
7.0;539.0
8.0;535.0
9.0;536.0
10.0;539.0
11.0;541.0
12.0;543.0
13.0;544.0
14.0;544.0
15.0;545.0
0.0;549.0
1.0;547.0
2.0;546.0
3.0;543.0
4.0;538.0
5.0;532.0
6.0;526.0
7.0;521.0
8.0;514.0
9.0;511.0
10.0;510.0
11.0;508.0
12.0;511.0
13.0;516.0
14.0;521.0
15.0;527.0
0.0;528.0
1.0;529.0
2.0;530.0
3.0;526.0
4.0;522.0
5.0;515.0
6.0;511.0
7.0;508.0
8.0;504.0
9.0;497.0
10.0;490.0
11.0;491.0
12.0;491.0
13.0;493.0
14.0;497.0
15.0;500.0
0.0;509.0
1.0;513.0
2.0;513.0
3.0;512.0
4.0;511.0
5.0;506.0
6.0;500.0
7.0;497.0
8.0;495.0
9.0;491.0
10.0;486.0
11.0;483.0
12.0;482.0
13.0;482.0
14.0;486.0
15.0;491.0
0.0;496.0
1.0;501.0
2.0;504.0
3.0;508.0
4.0;511.0
5.0;507.0
6.0;503.0
7.0;497.0
8.0;489.0
9.0;481.0
10.0;475.0
11.0;472.0
12.0;472.0
13.0;474.0
14.0;478.0
15.0;481.0
0.0;484.0
1.0;486.0
2.0;485.0
3.0;483.0
4.0;480.0
5.0;478.0
6.0;480.0
7.0;489.0
8.0;494.0
9.0;493.0
10.0;489.0
11.0;485.0
12.0;482.0
13.0;479.0
14.0;477.0
15.0;478.0
0.0;481.0
1.0;486.0
2.0;493.0
3.0;497.0
4.0;498.0
5.0;495.0
6.0;492.0
7.0;492.0
8.0;488.0
9.0;483.0
10.0;477.0
11.0;474.0
12.0;473.0
13.0;476.0
14.0;478.0
15.0;482.0
0.0;487.0
1.0;492.0
2.0;497.0
3.0;501.0
4.0;504.0
5.0;505.0
6.0;505.0
7.0;504.0
8.0;501.0
9.0;499.0
10.0;496.0
11.0;492.0
12.0;488.0
13.0;487.0
14.0;488.0
15.0;489.0
0.0;494.0
1.0;500.0
2.0;506.0
3.0;512.0
4.0;519.0
5.0;527.0
6.0;534.0
7.0;537.0
8.0;531.0
9.0;522.0
10.0;515.0
11.0;507.0
12.0;500.0
13.0;495.0
14.0;492.0
15.0;489.0
0.0;488.0
1.0;491.0
2.0;495.0
3.0;499.0
4.0;502.0
5.0;505.0
6.0;508.0
7.0;512.0
8.0;516.0
9.0;515.0
10.0;509.0
11.0;504.0
12.0;505.0
13.0;506.0
14.0;507.0
15.0;508.0
0.0;511.0
1.0;513.0
2.0;516.0
3.0;518.0
4.0;517.0
5.0;519.0
6.0;520.0
7.0;519.0
8.0;522.0
9.0;520.0
10.0;517.0
11.0;514.0
12.0;512.0
13.0;507.0
14.0;504.0
15.0;504.0
0.0;508.0
1.0;510.0
2.0;512.0
3.0;515.0
4.0;519.0
5.0;524.0
6.0;528.0
7.0;530.0
8.0;529.0
9.0;527.0
10.0;523.0
11.0;518.0
12.0;515.0
13.0;512.0
14.0;510.0
15.0;508.0
0.0;511.0
1.0;512.0
2.0;514.0
3.0;516.0
4.0;520.0
5.0;525.0
6.0;529.0
7.0;533.0
8.0;535.0
9.0;536.0
10.0;536.0
11.0;533.0
12.0;528.0
13.0;526.0
14.0;525.0
15.0;525.0
0.0;526.0
1.0;527.0
2.0;528.0
3.0;530.0
4.0;533.0
5.0;539.0
6.0;541.0
7.0;543.0
8.0;547.0
9.0;545.0
10.0;543.0
11.0;542.0
12.0;540.0
13.0;535.0
14.0;530.0
15.0;525.0
0.0;526.0
1.0;529.0
2.0;531.0
3.0;532.0
4.0;535.0
5.0;540.0
6.0;546.0
7.0;549.0
8.0;550.0
9.0;550.0
10.0;549.0
11.0;548.0
12.0;544.0
13.0;540.0
14.0;535.0
15.0;531.0
0.0;530.0
1.0;527.0
2.0;529.0
3.0;533.0
4.0;540.0
5.0;548.0
6.0;556.0
7.0;563.0
8.0;571.0
9.0;578.0
10.0;577.0
11.0;573.0
12.0;568.0
13.0;561.0
14.0;553.0
15.0;546.0
0.0;542.0
1.0;540.0
2.0;538.0
3.0;539.0
4.0;540.0
5.0;540.0
6.0;542.0
7.0;543.0
8.0;544.0
9.0;547.0
10.0;545.0
11.0;543.0
12.0;543.0
13.0;543.0
14.0;540.0
15.0;535.0
0.0;529.0
1.0;522.0
2.0;518.0
3.0;517.0
4.0;517.0
5.0;516.0
6.0;518.0
7.0;521.0
8.0;524.0
9.0;528.0
10.0;529.0
11.0;527.0
12.0;524.0
13.0;520.0
14.0;513.0
15.0;503.0
0.0;497.0
1.0;494.0
2.0;492.0
3.0;490.0
4.0;489.0
5.0;490.0
6.0;491.0
7.0;496.0
8.0;501.0
9.0;503.0
10.0;506.0
11.0;510.0
12.0;512.0
13.0;510.0
14.0;507.0
15.0;505.0
0.0;504.0
1.0;501.0
2.0;498.0
3.0;498.0
4.0;498.0
5.0;498.0
6.0;490.0
7.0;490.0
8.0;492.0
9.0;496.0
10.0;503.0
11.0;507.0
12.0;509.0
13.0;508.0
14.0;511.0
15.0;511.0
0.0;507.0
1.0;501.0
2.0;496.0
3.0;492.0
4.0;491.0
5.0;487.0
6.0;484.0
7.0;483.0
8.0;486.0
9.0;493.0
10.0;503.0
11.0;511.0
12.0;516.0
13.0;523.0
14.0;526.0
15.0;526.0
0.0;524.0
1.0;519.0
2.0;513.0
3.0;508.0
4.0;503.0
5.0;500.0
6.0;498.0
7.0;500.0
8.0;501.0
9.0;505.0
10.0;508.0
11.0;509.0
12.0;514.0
13.0;516.0
14.0;517.0
15.0;517.0
0.0;516.0
1.0;512.0
2.0;508.0
3.0;505.0
4.0;505.0
5.0;504.0
6.0;498.0
7.0;493.0
8.0;490.0
9.0;491.0
10.0;495.0
11.0;497.0
12.0;496.0
13.0;497.0
14.0;496.0
15.0;495.0
0.0;495.0
1.0;496.0
2.0;496.0
3.0;499.0
4.0;501.0
5.0;501.0
6.0;504.0
7.0;510.0
8.0;520.0
9.0;529.0
10.0;545.0
11.0;568.0
12.0;593.0
13.0;619.0
14.0;644.0
15.0;668.0
0.0;690.0
1.0;710.0
2.0;727.0
3.0;741.0
4.0;758.0
5.0;775.0
6.0;792.0
7.0;810.0
8.0;829.0
9.0;837.0
10.0;835.0
11.0;823.0
12.0;802.0
13.0;782.0
14.0;758.0
15.0;724.0
0.0;684.0
1.0;652.0
2.0;615.0
3.0;575.0
4.0;530.0
5.0;490.0
6.0;456.0
7.0;430.0
8.0;412.0
9.0;397.0
10.0;390.0
11.0;386.0
12.0;385.0
13.0;386.0
14.0;386.0
15.0;390.0
0.0;395.0
1.0;398.0
2.0;402.0
3.0;412.0
4.0;414.0
5.0;411.0
6.0;412.0
7.0;412.0
8.0;412.0
9.0;414.0
10.0;418.0
11.0;420.0
12.0;419.0
13.0;423.0
14.0;427.0
15.0;433.0
0.0;441.0
1.0;449.0
2.0;459.0
3.0;468.0
4.0;475.0
5.0;476.0
6.0;478.0
7.0;481.0
8.0;480.0
9.0;476.0
10.0;475.0
11.0;476.0
12.0;479.0
13.0;489.0
14.0;495.0
15.0;498.0
0.0;501.0
1.0;504.0
2.0;504.0
3.0;508.0
4.0;508.0
5.0;504.0
6.0;500.0
7.0;500.0
8.0;496.0
9.0;494.0
10.0;495.0
11.0;497.0
12.0;500.0
13.0;503.0
14.0;507.0
15.0;510.0
0.0;512.0
1.0;516.0
2.0;517.0
3.0;517.0
4.0;520.0
5.0;521.0
6.0;516.0
7.0;508.0
8.0;505.0
9.0;499.0
10.0;493.0
11.0;490.0
12.0;490.0
13.0;488.0
14.0;493.0
15.0;499.0
0.0;504.0
1.0;510.0
2.0;519.0
3.0;523.0
4.0;523.0
5.0;525.0
6.0;524.0
7.0;517.0
8.0;511.0
9.0;507.0
10.0;505.0
11.0;503.0
12.0;504.0
13.0;504.0
14.0;504.0
15.0;502.0
0.0;505.0
1.0;511.0
2.0;519.0
3.0;528.0
4.0;535.0
5.0;533.0
6.0;531.0
7.0;530.0
8.0;529.0
9.0;524.0
10.0;518.0
11.0;513.0
12.0;512.0
13.0;512.0
14.0;513.0
15.0;517.0
0.0;521.0
1.0;524.0
2.0;527.0
3.0;531.0
4.0;533.0
5.0;531.0
6.0;528.0
7.0;527.0
8.0;523.0
9.0;518.0
10.0;515.0
11.0;513.0
12.0;511.0
13.0;514.0
14.0;516.0
15.0;515.0
0.0;516.0
1.0;519.0
2.0;521.0
3.0;525.0
4.0;526.0
5.0;526.0
6.0;524.0
7.0;523.0
8.0;521.0
9.0;519.0
10.0;516.0
11.0;513.0
12.0;511.0
13.0;510.0
14.0;513.0
15.0;516.0
0.0;518.0
1.0;522.0
2.0;525.0
3.0;528.0
4.0;532.0
5.0;534.0
6.0;535.0
7.0;536.0
8.0;535.0
9.0;532.0
10.0;527.0
11.0;522.0
12.0;518.0
13.0;515.0
14.0;514.0
15.0;515.0
0.0;516.0
1.0;518.0
2.0;523.0
3.0;528.0
4.0;531.0
5.0;534.0
6.0;535.0
7.0;536.0
8.0;537.0
9.0;536.0
10.0;536.0
11.0;534.0
12.0;534.0
13.0;535.0
14.0;536.0
15.0;536.0
0.0;535.0
1.0;533.0
2.0;536.0
3.0;542.0
4.0;547.0
5.0;550.0
6.0;552.0
7.0;552.0
8.0;551.0
9.0;546.0
10.0;540.0
11.0;534.0
12.0;529.0
13.0;524.0
14.0;524.0
15.0;523.0
0.0;518.0
1.0;516.0
2.0;514.0
3.0;517.0
4.0;521.0
5.0;527.0
6.0;533.0
7.0;538.0
8.0;540.0
9.0;540.0
10.0;537.0
11.0;533.0
12.0;527.0
13.0;520.0
14.0;513.0
15.0;507.0
0.0;502.0
1.0;500.0
2.0;498.0
3.0;497.0
4.0;499.0
5.0;504.0
6.0;509.0
7.0;512.0
8.0;516.0
9.0;518.0
10.0;518.0
11.0;516.0
12.0;513.0
13.0;509.0
14.0;504.0
15.0;497.0
0.0;492.0
1.0;490.0
2.0;488.0
3.0;487.0
4.0;488.0
5.0;492.0
6.0;495.0
7.0;499.0
8.0;503.0
9.0;502.0
10.0;499.0
11.0;496.0
12.0;492.0
13.0;488.0
14.0;484.0
15.0;480.0
0.0;476.0
1.0;473.0
2.0;473.0
3.0;472.0
4.0;472.0
5.0;476.0
6.0;482.0
7.0;486.0
8.0;490.0
9.0;494.0
10.0;496.0
11.0;495.0
12.0;493.0
13.0;490.0
14.0;486.0
15.0;482.0
0.0;476.0
1.0;471.0
2.0;467.0
3.0;465.0
4.0;464.0
5.0;464.0
6.0;466.0
7.0;469.0
8.0;470.0
9.0;474.0
10.0;477.0
11.0;476.0
12.0;476.0
13.0;477.0
14.0;476.0
15.0;472.0
0.0;468.0
1.0;466.0
2.0;461.0
3.0;459.0
4.0;459.0
5.0;460.0
6.0;464.0
7.0;469.0
8.0;473.0
9.0;474.0
10.0;474.0
11.0;477.0
12.0;479.0
13.0;477.0
14.0;472.0
15.0;466.0
0.0;464.0
1.0;463.0
2.0;461.0
3.0;460.0
4.0;462.0
5.0;462.0
6.0;462.0
7.0;464.0
8.0;470.0
9.0;476.0
10.0;483.0
11.0;488.0
12.0;487.0
13.0;487.0
14.0;487.0
15.0;488.0
0.0;486.0
1.0;482.0
2.0;481.0
3.0;480.0
4.0;480.0
5.0;479.0
6.0;476.0
7.0;478.0
8.0;482.0
9.0;487.0
10.0;491.0
11.0;494.0
12.0;496.0
13.0;496.0
14.0;497.0
15.0;497.0
0.0;494.0
1.0;490.0
2.0;487.0
3.0;486.0
4.0;483.0
5.0;481.0
6.0;479.0
7.0;481.0
8.0;484.0
9.0;490.0
10.0;499.0
11.0;504.0
12.0;509.0
13.0;510.0
14.0;507.0
15.0;506.0
0.0;504.0
1.0;500.0
2.0;496.0
3.0;491.0
4.0;488.0
5.0;488.0
6.0;487.0
7.0;489.0
8.0;489.0
9.0;492.0
10.0;499.0
11.0;504.0
12.0;505.0
13.0;507.0
14.0;508.0
15.0;507.0
0.0;505.0
1.0;501.0
2.0;497.0
3.0;493.0
4.0;487.0
5.0;482.0
6.0;481.0
7.0;482.0
8.0;483.0
9.0;487.0
10.0;491.0
11.0;496.0
12.0;502.0
13.0;506.0
14.0;510.0
15.0;506.0
0.0;506.0
1.0;507.0
2.0;507.0
3.0;507.0
4.0;508.0
5.0;509.0
6.0;508.0
7.0;505.0
8.0;502.0
9.0;501.0
10.0;502.0
11.0;505.0
12.0;511.0
13.0;518.0
14.0;525.0
15.0;529.0
0.0;531.0
1.0;533.0
2.0;532.0
3.0;529.0
4.0;524.0
5.0;519.0
6.0;516.0
7.0;514.0
8.0;515.0
9.0;519.0
10.0;523.0
11.0;527.0
12.0;532.0
13.0;535.0
14.0;538.0
15.0;540.0
0.0;540.0
1.0;540.0
2.0;540.0
3.0;537.0
4.0;534.0
5.0;529.0
6.0;522.0
7.0;514.0
8.0;516.0
9.0;513.0
10.0;508.0
11.0;509.0
12.0;515.0
13.0;519.0
14.0;520.0
15.0;526.0
0.0;534.0
1.0;537.0
2.0;542.0
3.0;544.0
4.0;544.0
5.0;542.0
6.0;541.0
7.0;540.0
8.0;539.0
9.0;542.0
10.0;545.0
11.0;548.0
12.0;551.0
13.0;556.0
14.0;560.0
15.0;563.0
0.0;564.0
1.0;563.0
2.0;563.0
3.0;561.0
4.0;553.0
5.0;541.0
6.0;534.0
7.0;527.0
8.0;519.0
9.0;512.0
10.0;510.0
11.0;509.0
12.0;510.0
13.0;514.0
14.0;519.0
15.0;524.0
0.0;524.0
1.0;524.0
2.0;523.0
3.0;522.0
4.0;522.0
5.0;519.0
6.0;512.0
7.0;508.0
8.0;500.0
9.0;494.0
10.0;487.0
11.0;484.0
12.0;480.0
13.0;480.0
14.0;486.0
15.0;491.0
0.0;494.0
1.0;497.0
2.0;497.0
3.0;496.0
4.0;498.0
5.0;497.0
6.0;492.0
7.0;487.0
8.0;480.0
9.0;474.0
10.0;467.0
11.0;467.0
12.0;470.0
13.0;470.0
14.0;473.0
15.0;476.0
0.0;479.0
1.0;484.0
2.0;490.0
3.0;495.0
4.0;493.0
5.0;495.0
6.0;495.0
7.0;489.0
8.0;481.0
9.0;476.0
10.0;469.0
11.0;465.0
12.0;467.0
13.0;467.0
14.0;467.0
15.0;470.0
0.0;479.0
1.0;485.0
2.0;492.0
3.0;498.0
4.0;500.0
5.0;499.0
6.0;499.0
7.0;494.0
8.0;487.0
9.0;484.0
10.0;481.0
11.0;481.0
12.0;479.0
13.0;475.0
14.0;473.0
15.0;476.0
0.0;483.0
1.0;487.0
2.0;487.0
3.0;489.0
4.0;491.0
5.0;492.0
6.0;492.0
7.0;492.0
8.0;490.0
9.0;487.0
10.0;483.0
11.0;482.0
12.0;479.0
13.0;480.0
14.0;482.0
15.0;485.0
0.0;486.0
1.0;490.0
2.0;493.0
3.0;494.0
4.0;495.0
5.0;494.0
6.0;492.0
7.0;490.0
8.0;483.0
9.0;476.0
10.0;469.0
11.0;463.0
12.0;460.0
13.0;459.0
14.0;459.0
15.0;461.0
0.0;461.0
1.0;466.0
2.0;472.0
3.0;477.0
4.0;485.0
5.0;493.0
6.0;499.0
7.0;506.0
8.0;515.0
9.0;522.0
10.0;527.0
11.0;536.0
12.0;551.0
13.0;572.0
14.0;593.0
15.0;615.0
0.0;635.0
1.0;656.0
2.0;681.0
3.0;704.0
4.0;728.0
5.0;755.0
6.0;782.0
7.0;808.0
8.0;831.0
9.0;840.0
10.0;836.0
11.0;822.0
12.0;802.0
13.0;777.0
14.0;742.0
15.0;703.0
0.0;663.0
1.0;623.0
2.0;585.0
3.0;543.0
4.0;502.0
5.0;469.0
6.0;446.0
7.0;425.0
8.0;409.0
9.0;398.0
10.0;388.0
11.0;380.0
12.0;374.0
13.0;369.0
14.0;360.0
15.0;355.0
0.0;357.0
1.0;357.0
2.0;366.0
3.0;377.0
4.0;383.0
5.0;386.0
6.0;397.0
7.0;406.0
8.0;411.0
9.0;418.0
10.0;420.0
11.0;419.0
12.0;417.0
13.0;419.0
14.0;422.0
15.0;428.0
0.0;434.0
1.0;438.0
2.0;440.0
3.0;443.0
4.0;455.0
5.0;459.0
6.0;465.0
7.0;475.0
8.0;477.0
9.0;479.0
10.0;483.0
11.0;483.0
12.0;481.0
13.0;479.0
14.0;479.0
15.0;477.0
0.0;478.0
1.0;482.0
2.0;482.0
3.0;482.0
4.0;484.0
5.0;488.0
6.0;492.0
7.0;498.0
8.0;502.0
9.0;503.0
10.0;504.0
11.0;503.0
12.0;501.0
13.0;496.0
14.0;496.0
15.0;496.0
0.0;494.0
1.0;492.0
2.0;496.0
3.0;499.0
4.0;500.0
5.0;503.0
6.0;508.0
7.0;510.0
8.0;513.0
9.0;517.0
10.0;517.0
11.0;516.0
12.0;517.0
13.0;515.0
14.0;514.0
15.0;512.0
0.0;510.0
1.0;506.0
2.0;506.0
3.0;507.0
4.0;509.0
5.0;511.0
6.0;514.0
7.0;517.0
8.0;520.0
9.0;524.0
10.0;525.0
11.0;527.0
12.0;529.0
13.0;527.0
14.0;524.0
15.0;520.0
0.0;521.0
1.0;520.0
2.0;515.0
3.0;510.0
4.0;508.0
5.0;507.0
6.0;510.0
7.0;516.0
8.0;521.0
9.0;527.0
10.0;532.0
11.0;534.0
12.0;533.0
13.0;534.0
14.0;530.0
15.0;525.0
0.0;521.0
1.0;519.0
2.0;518.0
3.0;517.0
4.0;521.0
5.0;523.0
6.0;524.0
7.0;524.0
8.0;531.0
9.0;540.0
10.0;547.0
11.0;550.0
12.0;550.0
13.0;549.0
14.0;547.0
15.0;544.0
0.0;540.0
1.0;535.0
2.0;531.0
3.0;528.0
4.0;528.0
5.0;527.0
6.0;527.0
7.0;528.0
8.0;529.0
9.0;530.0
10.0;529.0
11.0;536.0
12.0;541.0
13.0;543.0
14.0;548.0
15.0;551.0
0.0;549.0
1.0;550.0
2.0;547.0
3.0;541.0
4.0;539.0
5.0;540.0
6.0;537.0
7.0;536.0
8.0;540.0
9.0;545.0
10.0;550.0
11.0;553.0
12.0;557.0
13.0;559.0
14.0;559.0
15.0;557.0
0.0;557.0
1.0;557.0
2.0;553.0
3.0;549.0
4.0;546.0
5.0;544.0
6.0;545.0
7.0;545.0
8.0;547.0
9.0;551.0
10.0;554.0
11.0;556.0
12.0;556.0
13.0;554.0
14.0;557.0
15.0;558.0
0.0;557.0
1.0;555.0
2.0;552.0
3.0;549.0
4.0;547.0
5.0;544.0
6.0;543.0
7.0;545.0
8.0;545.0
9.0;545.0
10.0;545.0
11.0;549.0
12.0;558.0
13.0;560.0
14.0;561.0
15.0;559.0
0.0;556.0
1.0;551.0
2.0;545.0
3.0;538.0
4.0;534.0
5.0;529.0
6.0;524.0
7.0;522.0
8.0;521.0
9.0;522.0
10.0;525.0
11.0;531.0
12.0;536.0
13.0;541.0
14.0;545.0
15.0;545.0
0.0;543.0
1.0;543.0
2.0;542.0
3.0;537.0
4.0;530.0
5.0;524.0
6.0;523.0
7.0;518.0
8.0;516.0
9.0;516.0
10.0;516.0
11.0;520.0
12.0;524.0
13.0;528.0
14.0;531.0
15.0;531.0
0.0;529.0
1.0;527.0
2.0;526.0
3.0;522.0
4.0;513.0
5.0;506.0
6.0;501.0
7.0;497.0
8.0;495.0
9.0;495.0
10.0;496.0
11.0;497.0
12.0;500.0
13.0;504.0
14.0;505.0
15.0;510.0
0.0;512.0
1.0;515.0
2.0;513.0
3.0;511.0
4.0;510.0
5.0;505.0
6.0;500.0
7.0;496.0
8.0;491.0
9.0;486.0
10.0;483.0
11.0;480.0
12.0;484.0
13.0;487.0
14.0;491.0
15.0;496.0
0.0;498.0
1.0;497.0
2.0;494.0
3.0;489.0
4.0;485.0
5.0;483.0
6.0;480.0
7.0;476.0
8.0;477.0
9.0;480.0
10.0;480.0
11.0;477.0
12.0;479.0
13.0;485.0
14.0;496.0
15.0;505.0
0.0;509.0
1.0;508.0
2.0;504.0
3.0;503.0
4.0;506.0
5.0;501.0
6.0;489.0
7.0;482.0
8.0;475.0
9.0;471.0
10.0;469.0
11.0;472.0
12.0;473.0
13.0;475.0
14.0;479.0
15.0;484.0
0.0;489.0
1.0;496.0
2.0;499.0
3.0;497.0
4.0;494.0
5.0;491.0
6.0;486.0
7.0;482.0
8.0;478.0
9.0;475.0
10.0;474.0
11.0;476.0
12.0;479.0
13.0;479.0
14.0;479.0
15.0;481.0
0.0;486.0
1.0;491.0
2.0;495.0
3.0;497.0
4.0;499.0
5.0;499.0
6.0;496.0
7.0;492.0
8.0;488.0
9.0;484.0
10.0;480.0
11.0;479.0
12.0;480.0
13.0;479.0
14.0;480.0
15.0;484.0
0.0;489.0
1.0;495.0
2.0;503.0
3.0;507.0
4.0;508.0
5.0;505.0
6.0;503.0
7.0;501.0
8.0;498.0
9.0;495.0
10.0;491.0
11.0;488.0
12.0;490.0
13.0;489.0
14.0;492.0
15.0;497.0
0.0;501.0
1.0;504.0
2.0;508.0
3.0;511.0
4.0;511.0
5.0;510.0
6.0;509.0
7.0;504.0
8.0;500.0
9.0;496.0
10.0;493.0
11.0;492.0
12.0;495.0
13.0;499.0
14.0;505.0
15.0;506.0
0.0;512.0
1.0;516.0
2.0;519.0
3.0;523.0
4.0;524.0
5.0;520.0
6.0;517.0
7.0;514.0
8.0;511.0
9.0;509.0
10.0;506.0
11.0;502.0
12.0;497.0
13.0;496.0
14.0;498.0
15.0;500.0
0.0;501.0
1.0;499.0
2.0;503.0
3.0;505.0
4.0;507.0
5.0;509.0
6.0;510.0
7.0;513.0
8.0;517.0
9.0;517.0
10.0;517.0
11.0;518.0
12.0;518.0
13.0;518.0
14.0;513.0
15.0;512.0
0.0;512.0
1.0;514.0
2.0;519.0
3.0;523.0
4.0;528.0
5.0;538.0
6.0;540.0
7.0;537.0
8.0;535.0
9.0;531.0
10.0;528.0
11.0;524.0
12.0;519.0
13.0;512.0
14.0;509.0
15.0;508.0
0.0;511.0
1.0;512.0
2.0;519.0
3.0;526.0
4.0;528.0
5.0;528.0
6.0;532.0
7.0;532.0
8.0;530.0
9.0;528.0
10.0;525.0
11.0;521.0
12.0;516.0
13.0;511.0
14.0;509.0
15.0;510.0
0.0;515.0
1.0;516.0
2.0;517.0
3.0;524.0
4.0;530.0
5.0;537.0
6.0;542.0
7.0;546.0
8.0;548.0
9.0;550.0
10.0;550.0
11.0;544.0
12.0;540.0
13.0;538.0
14.0;533.0
15.0;529.0
0.0;527.0
1.0;526.0
2.0;525.0
3.0;524.0
4.0;526.0
5.0;528.0
6.0;532.0
7.0;535.0
8.0;537.0
9.0;536.0
10.0;533.0
11.0;529.0
12.0;524.0
13.0;519.0
14.0;515.0
15.0;509.0
0.0;505.0
1.0;505.0
2.0;506.0
3.0;506.0
4.0;507.0
5.0;509.0
6.0;512.0
7.0;515.0
8.0;517.0
9.0;515.0
10.0;510.0
11.0;505.0
12.0;501.0
13.0;496.0
14.0;493.0
15.0;489.0
0.0;482.0
1.0;477.0
2.0;474.0
3.0;472.0
4.0;471.0
5.0;471.0
6.0;474.0
7.0;476.0
8.0;480.0
9.0;485.0
10.0;485.0
11.0;483.0
12.0;483.0
13.0;480.0
14.0;474.0
15.0;469.0
0.0;464.0
1.0;463.0
2.0;464.0
3.0;465.0
4.0;468.0
5.0;473.0
6.0;481.0
7.0;487.0
8.0;495.0
9.0;501.0
10.0;495.0
11.0;488.0
12.0;487.0
13.0;483.0
14.0;478.0
15.0;476.0
0.0;472.0
1.0;468.0
2.0;464.0
3.0;464.0
4.0;465.0
5.0;465.0
6.0;470.0
7.0;478.0
8.0;483.0
9.0;490.0
10.0;494.0
11.0;495.0
12.0;495.0
13.0;496.0
14.0;495.0
15.0;491.0
0.0;487.0
1.0;484.0
2.0;480.0
3.0;477.0
4.0;477.0
5.0;477.0
6.0;478.0
7.0;482.0
8.0;486.0
9.0;488.0
10.0;493.0
11.0;500.0
12.0;501.0
13.0;499.0
14.0;497.0
15.0;492.0
0.0;487.0
1.0;485.0
2.0;482.0
3.0;478.0
4.0;479.0
5.0;481.0
6.0;482.0
7.0;483.0
8.0;485.0
9.0;482.0
10.0;482.0
11.0;481.0
12.0;481.0
13.0;482.0
14.0;483.0
15.0;475.0
0.0;466.0
1.0;462.0
2.0;460.0
3.0;460.0
4.0;463.0
5.0;470.0
6.0;481.0
7.0;493.0
8.0;505.0
9.0;520.0
10.0;539.0
11.0;560.0
12.0;583.0
13.0;604.0
14.0;622.0
15.0;640.0
0.0;655.0
1.0;670.0
2.0;686.0
3.0;699.0
4.0;718.0
5.0;743.0
6.0;768.0
7.0;791.0
8.0;807.0
9.0;817.0
10.0;816.0
11.0;806.0
12.0;789.0
13.0;766.0
14.0;734.0
15.0;696.0
0.0;655.0
1.0;610.0
2.0;563.0
3.0;520.0
4.0;482.0
5.0;451.0
6.0;430.0
7.0;414.0
8.0;403.0
9.0;396.0
10.0;394.0
11.0;396.0
12.0;399.0
13.0;399.0
14.0;400.0
15.0;402.0
0.0;405.0
1.0;407.0
2.0;405.0
3.0;401.0
4.0;399.0
5.0;397.0
6.0;398.0
7.0;402.0
8.0;405.0
9.0;407.0
10.0;413.0
11.0;421.0
12.0;428.0
13.0;436.0
14.0;444.0
15.0;450.0
0.0;454.0
1.0;458.0
2.0;461.0
3.0;460.0
4.0;460.0
5.0;461.0
6.0;463.0
7.0;463.0
8.0;464.0
9.0;467.0
10.0;468.0
11.0;475.0
12.0;479.0
13.0;483.0
14.0;488.0
15.0;496.0
0.0;499.0
1.0;501.0
2.0;504.0
3.0;504.0
4.0;500.0
5.0;497.0
6.0;493.0
7.0;492.0
8.0;491.0
9.0;491.0
10.0;489.0
11.0;490.0
12.0;500.0
13.0;507.0
14.0;514.0
15.0;517.0
0.0;515.0
1.0;511.0
2.0;514.0
3.0;515.0
4.0;509.0
5.0;506.0
6.0;505.0
7.0;499.0
8.0;493.0
9.0;492.0
10.0;491.0
11.0;492.0
12.0;496.0
13.0;503.0
14.0;509.0
15.0;515.0
0.0;519.0
1.0;522.0
2.0;524.0
3.0;524.0
4.0;520.0
5.0;516.0
6.0;513.0
7.0;511.0
8.0;507.0
9.0;505.0
10.0;508.0
11.0;511.0
12.0;515.0
13.0;521.0
14.0;527.0
15.0;531.0
0.0;535.0
1.0;536.0
2.0;533.0
3.0;531.0
4.0;534.0
5.0;529.0
6.0;522.0
7.0;520.0
8.0;519.0
9.0;518.0
10.0;518.0
11.0;522.0
12.0;524.0
13.0;529.0
14.0;533.0
15.0;535.0
0.0;538.0
1.0;541.0
2.0;543.0
3.0;541.0
4.0;540.0
5.0;536.0
6.0;530.0
7.0;524.0
8.0;519.0
9.0;515.0
10.0;511.0
11.0;507.0
12.0;506.0
13.0;508.0
14.0;515.0
15.0;522.0
0.0;525.0
1.0;527.0
2.0;528.0
3.0;529.0
4.0;531.0
5.0;534.0
6.0;534.0
7.0;529.0
8.0;527.0
9.0;523.0
10.0;518.0
11.0;516.0
12.0;516.0
13.0;515.0
14.0;517.0
15.0;522.0
0.0;528.0
1.0;535.0
2.0;542.0
3.0;546.0
4.0;547.0
5.0;547.0
6.0;545.0
7.0;541.0
8.0;536.0
9.0;533.0
10.0;529.0
11.0;525.0
12.0;524.0
13.0;526.0
14.0;527.0
15.0;530.0
0.0;536.0
1.0;538.0
2.0;543.0
3.0;550.0
4.0;554.0
5.0;558.0
6.0;560.0
7.0;560.0
8.0;556.0
9.0;551.0
10.0;547.0
11.0;540.0
12.0;536.0
13.0;537.0
14.0;537.0
15.0;539.0
0.0;542.0
1.0;545.0
2.0;545.0
3.0;548.0
4.0;551.0
5.0;554.0
6.0;555.0
7.0;555.0
8.0;551.0
9.0;543.0
10.0;537.0
11.0;534.0
12.0;528.0
13.0;524.0
14.0;524.0
15.0;526.0
0.0;527.0
1.0;532.0
2.0;532.0
3.0;531.0
4.0;532.0
5.0;535.0
6.0;540.0
7.0;539.0
8.0;534.0
9.0;528.0
10.0;521.0
11.0;518.0
12.0;514.0
13.0;515.0
14.0;518.0
15.0;512.0
0.0;508.0
1.0;508.0
2.0;511.0
3.0;512.0
4.0;516.0
5.0;521.0
6.0;522.0
7.0;521.0
8.0;521.0
9.0;518.0
10.0;513.0
11.0;509.0
12.0;506.0
13.0;503.0
14.0;499.0
15.0;498.0
0.0;494.0
1.0;492.0
2.0;492.0
3.0;495.0
4.0;501.0
5.0;503.0
6.0;507.0
7.0;507.0
8.0;505.0
9.0;505.0
10.0;501.0
11.0;497.0
12.0;495.0
13.0;492.0
14.0;485.0
15.0;483.0
0.0;487.0
1.0;488.0
2.0;490.0
3.0;493.0
4.0;495.0
5.0;497.0
6.0;499.0
7.0;500.0
8.0;500.0
9.0;500.0
10.0;497.0
11.0;494.0
12.0;491.0
13.0;487.0
14.0;481.0
15.0;475.0
0.0;476.0
1.0;477.0
2.0;476.0
3.0;480.0
4.0;484.0
5.0;489.0
6.0;494.0
7.0;497.0
8.0;498.0
9.0;498.0
10.0;498.0
11.0;497.0
12.0;490.0
13.0;486.0
14.0;483.0
15.0;480.0
0.0;477.0
1.0;478.0
2.0;477.0
3.0;475.0
4.0;481.0
5.0;490.0
6.0;497.0
7.0;502.0
8.0;506.0
9.0;505.0
10.0;504.0
11.0;502.0
12.0;498.0
13.0;494.0
14.0;491.0
15.0;487.0
0.0;486.0
1.0;485.0
2.0;485.0
3.0;483.0
4.0;481.0
5.0;481.0
6.0;483.0
7.0;486.0
8.0;489.0
9.0;492.0
10.0;493.0
11.0;493.0
12.0;494.0
13.0;487.0
14.0;483.0
15.0;482.0
0.0;478.0
1.0;474.0
2.0;475.0
3.0;476.0
4.0;476.0
5.0;481.0
6.0;487.0
7.0;491.0
8.0;494.0
9.0;500.0
10.0;503.0
11.0;506.0
12.0;509.0
13.0;508.0
14.0;503.0
15.0;494.0
0.0;490.0
1.0;491.0
2.0;492.0
3.0;496.0
4.0;497.0
5.0;498.0
6.0;496.0
7.0;499.0
8.0;503.0
9.0;507.0
10.0;512.0
11.0;513.0
12.0;515.0
13.0;518.0
14.0;516.0
15.0;510.0
0.0;501.0
1.0;496.0
2.0;495.0
3.0;501.0
4.0;505.0
5.0;501.0
6.0;501.0
7.0;506.0
8.0;512.0
9.0;515.0
10.0;519.0
11.0;523.0
12.0;524.0
13.0;524.0
14.0;522.0
15.0;520.0
0.0;516.0
1.0;511.0
2.0;506.0
3.0;501.0
4.0;504.0
5.0;508.0
6.0;508.0
7.0;509.0
8.0;510.0
9.0;509.0
10.0;508.0
11.0;509.0
12.0;509.0
13.0;506.0
14.0;505.0
15.0;501.0
0.0;499.0
1.0;498.0
2.0;492.0
3.0;488.0
4.0;485.0
5.0;483.0
6.0;484.0
7.0;487.0
8.0;496.0
9.0;506.0
10.0;512.0
11.0;516.0
12.0;521.0
13.0;522.0
14.0;520.0
15.0;519.0
0.0;514.0
1.0;507.0
2.0;502.0
3.0;496.0
4.0;491.0
5.0;495.0
6.0;496.0
7.0;496.0
8.0;496.0
9.0;499.0
10.0;504.0
11.0;509.0
12.0;515.0
13.0;521.0
14.0;524.0
15.0;525.0
0.0;527.0
1.0;523.0
2.0;517.0
3.0;513.0
4.0;510.0
5.0;512.0
6.0;516.0
7.0;516.0
8.0;516.0
9.0;515.0
10.0;515.0
11.0;515.0
12.0;519.0
13.0;524.0
14.0;526.0
15.0;524.0
0.0;522.0
1.0;517.0
2.0;512.0
3.0;507.0
4.0;502.0
5.0;497.0
6.0;496.0
7.0;497.0
8.0;499.0
9.0;502.0
10.0;508.0
11.0;515.0
12.0;523.0
13.0;529.0
14.0;536.0
15.0;541.0
0.0;542.0
1.0;543.0
2.0;539.0
3.0;534.0
4.0;531.0
5.0;528.0
6.0;525.0
7.0;522.0
8.0;520.0
9.0;521.0
10.0;523.0
11.0;525.0
12.0;528.0
13.0;531.0
14.0;534.0
15.0;534.0
0.0;532.0
1.0;531.0
2.0;528.0
3.0;524.0
4.0;520.0
5.0;516.0
6.0;513.0
7.0;511.0
8.0;510.0
9.0;504.0
10.0;501.0
11.0;505.0
12.0;509.0
13.0;512.0
14.0;515.0
15.0;516.0
0.0;513.0
1.0;510.0
2.0;509.0
3.0;505.0
4.0;496.0
5.0;487.0
6.0;476.0
7.0;468.0
8.0;462.0
9.0;457.0
10.0;455.0
11.0;456.0
12.0;460.0
13.0;465.0
14.0;471.0
15.0;476.0
0.0;480.0
1.0;478.0
2.0;476.0
3.0;476.0
4.0;470.0
5.0;465.0
6.0;463.0
7.0;462.0
8.0;460.0
9.0;458.0
10.0;456.0
11.0;461.0
12.0;461.0
13.0;462.0
14.0;464.0
15.0;469.0
0.0;476.0
1.0;479.0
2.0;478.0
3.0;478.0
4.0;479.0
5.0;479.0
6.0;476.0
7.0;471.0
8.0;468.0
9.0;468.0
10.0;468.0
11.0;467.0
12.0;467.0
13.0;471.0
14.0;476.0
15.0;480.0
0.0;483.0
1.0;488.0
2.0;490.0
3.0;492.0
4.0;491.0
5.0;487.0
6.0;486.0
7.0;480.0
8.0;473.0
9.0;469.0
10.0;464.0
11.0;462.0
12.0;462.0
13.0;463.0
14.0;468.0
15.0;472.0
0.0;478.0
1.0;483.0
2.0;487.0
3.0;488.0
4.0;489.0
5.0;490.0
6.0;488.0
7.0;483.0
8.0;481.0
9.0;480.0
10.0;480.0
11.0;481.0
12.0;482.0
13.0;483.0
14.0;487.0
15.0;490.0
0.0;490.0
1.0;489.0
2.0;489.0
3.0;488.0
4.0;486.0
5.0;483.0
6.0;479.0
7.0;473.0
8.0;468.0
9.0;466.0
10.0;464.0
11.0;463.0
12.0;466.0
13.0;470.0
14.0;477.0
15.0;485.0
0.0;498.0
1.0;515.0
2.0;531.0
3.0;545.0
4.0;560.0
5.0;576.0
6.0;593.0
7.0;612.0
8.0;628.0
9.0;646.0
10.0;663.0
11.0;678.0
12.0;693.0
13.0;712.0
14.0;736.0
15.0;758.0
0.0;783.0
1.0;807.0
2.0;824.0
3.0;832.0
4.0;831.0
5.0;815.0
6.0;793.0
7.0;764.0
8.0;728.0
9.0;686.0
10.0;648.0
11.0;603.0
12.0;555.0
13.0;514.0
14.0;482.0
15.0;451.0
0.0;429.0
1.0;416.0
2.0;406.0
3.0;398.0
4.0;393.0
5.0;390.0
6.0;389.0
7.0;386.0
8.0;380.0
9.0;374.0
10.0;373.0
11.0;374.0
12.0;375.0
13.0;379.0
14.0;386.0
15.0;392.0
0.0;397.0
1.0;401.0
2.0;407.0
3.0;414.0
4.0;420.0
5.0;427.0
6.0;434.0
7.0;436.0
8.0;440.0
9.0;443.0
10.0;442.0
11.0;444.0
12.0;446.0
13.0;446.0
14.0;449.0
15.0;452.0
0.0;456.0
1.0;463.0
2.0;469.0
3.0;476.0
4.0;482.0
5.0;488.0
6.0;495.0
7.0;498.0
8.0;499.0
9.0;500.0
10.0;498.0
11.0;494.0
12.0;490.0
13.0;489.0
14.0;489.0
15.0;492.0
0.0;498.0
1.0;499.0
2.0;500.0
3.0;504.0
4.0;508.0
5.0;511.0
6.0;513.0
7.0;514.0
8.0;514.0
9.0;514.0
10.0;513.0
11.0;509.0
12.0;503.0
13.0;498.0
14.0;493.0
15.0;490.0
0.0;491.0
1.0;491.0
2.0;490.0
3.0;494.0
4.0;499.0
5.0;503.0
6.0;508.0
7.0;513.0
8.0;517.0
9.0;519.0
10.0;523.0
11.0;525.0
12.0;524.0
13.0;519.0
14.0;511.0
15.0;505.0
0.0;502.0
1.0;503.0
2.0;504.0
3.0;505.0
4.0;511.0
5.0;515.0
6.0;521.0
7.0;526.0
8.0;530.0
9.0;530.0
10.0;529.0
11.0;527.0
12.0;524.0
13.0;520.0
14.0;518.0
15.0;515.0
0.0;511.0
1.0;510.0
2.0;513.0
3.0;513.0
4.0;513.0
5.0;519.0
6.0;520.0
7.0;524.0
8.0;529.0
9.0;535.0
10.0;541.0
11.0;543.0
12.0;542.0
13.0;537.0
14.0;531.0
15.0;527.0
0.0;522.0
1.0;518.0
2.0;515.0
3.0;517.0
4.0;521.0
5.0;525.0
6.0;530.0
7.0;533.0
8.0;540.0
9.0;548.0
10.0;555.0
11.0;557.0
12.0;560.0
13.0;555.0
14.0;550.0
15.0;544.0
0.0;542.0
1.0;539.0
2.0;536.0
3.0;536.0
4.0;535.0
5.0;535.0
6.0;538.0
7.0;540.0
8.0;544.0
9.0;549.0
10.0;551.0
11.0;551.0
12.0;551.0
13.0;552.0
14.0;549.0
15.0;545.0
0.0;542.0
1.0;540.0
2.0;540.0
3.0;543.0
4.0;545.0
5.0;547.0
6.0;551.0
7.0;554.0
8.0;558.0
9.0;559.0
10.0;561.0
11.0;563.0
12.0;563.0
13.0;564.0
14.0;559.0
15.0;553.0
0.0;550.0
1.0;548.0
2.0;543.0
3.0;541.0
4.0;542.0
5.0;543.0
6.0;544.0
7.0;547.0
8.0;552.0
9.0;555.0
10.0;558.0
11.0;561.0
12.0;561.0
13.0;559.0
14.0;558.0
15.0;555.0
0.0;549.0
1.0;542.0
2.0;538.0
3.0;536.0
4.0;536.0
5.0;538.0
6.0;539.0
7.0;540.0
8.0;543.0
9.0;546.0
10.0;549.0
11.0;553.0
12.0;553.0
13.0;555.0
14.0;553.0
15.0;553.0
0.0;548.0
1.0;540.0
2.0;531.0
3.0;524.0
4.0;521.0
5.0;520.0
6.0;519.0
7.0;518.0
8.0;522.0
9.0;528.0
10.0;532.0
11.0;534.0
12.0;534.0
13.0;534.0
14.0;532.0
15.0;530.0
0.0;527.0
1.0;522.0
2.0;517.0
3.0;515.0
4.0;511.0
5.0;508.0
6.0;508.0
7.0;509.0
8.0;510.0
9.0;512.0
10.0;513.0
11.0;517.0
12.0;523.0
13.0;525.0
14.0;522.0
15.0;519.0
0.0;516.0
1.0;513.0
2.0;508.0
3.0;503.0
4.0;497.0
5.0;490.0
6.0;485.0
7.0;482.0
8.0;480.0
9.0;478.0
10.0;483.0
11.0;486.0
12.0;492.0
13.0;499.0
14.0;502.0
15.0;502.0
0.0;503.0
1.0;499.0
2.0;492.0
3.0;487.0
4.0;487.0
5.0;491.0
6.0;489.0
7.0;485.0
8.0;481.0
9.0;480.0
10.0;480.0
11.0;480.0
12.0;481.0
13.0;487.0
14.0;496.0
15.0;500.0
0.0;500.0
1.0;500.0
2.0;500.0
3.0;497.0
4.0;494.0
5.0;489.0
6.0;483.0
7.0;480.0
8.0;481.0
9.0;482.0
10.0;481.0
11.0;482.0
12.0;484.0
13.0;485.0
14.0;486.0
15.0;492.0
0.0;492.0
1.0;491.0
2.0;491.0
3.0;488.0
4.0;483.0
5.0;480.0
6.0;477.0
7.0;473.0
8.0;472.0
9.0;472.0
10.0;474.0
11.0;479.0
12.0;486.0
13.0;494.0
14.0;499.0
15.0;502.0
0.0;504.0
1.0;504.0
2.0;501.0
3.0;499.0
4.0;494.0
5.0;487.0
6.0;483.0
7.0;479.0
8.0;478.0
9.0;479.0
10.0;478.0
11.0;477.0
12.0;478.0
13.0;480.0
14.0;485.0
15.0;493.0
0.0;499.0
1.0;500.0
2.0;500.0
3.0;500.0
4.0;499.0
5.0;497.0
6.0;492.0
7.0;488.0
8.0;484.0
9.0;482.0
10.0;483.0
11.0;486.0
12.0;488.0
13.0;491.0
14.0;494.0
15.0;495.0
0.0;499.0
1.0;505.0
2.0;508.0
3.0;509.0
4.0;509.0
5.0;507.0
6.0;505.0
7.0;503.0
8.0;499.0
9.0;493.0
10.0;490.0
11.0;491.0
12.0;491.0
13.0;492.0
14.0;497.0
15.0;504.0
0.0;513.0
1.0;520.0
2.0;522.0
3.0;521.0
4.0;520.0
5.0;519.0
6.0;514.0
7.0;508.0
8.0;503.0
9.0;497.0
10.0;493.0
11.0;492.0
12.0;492.0
13.0;490.0
14.0;490.0
15.0;496.0
0.0;502.0
1.0;506.0
2.0;511.0
3.0;515.0
4.0;516.0
5.0;515.0
6.0;512.0
7.0;508.0
8.0;504.0
9.0;499.0
10.0;495.0
11.0;494.0
12.0;495.0
13.0;495.0
14.0;498.0
15.0;504.0
0.0;511.0
1.0;515.0
2.0;518.0
3.0;519.0
4.0;520.0
5.0;521.0
6.0;523.0
7.0;522.0
8.0;517.0
9.0;513.0
10.0;509.0
11.0;506.0
12.0;504.0
13.0;505.0
14.0;505.0
15.0;506.0
0.0;511.0
1.0;516.0
2.0;521.0
3.0;525.0
4.0;527.0
5.0;531.0
6.0;532.0
7.0;531.0
8.0;527.0
9.0;523.0
10.0;518.0
11.0;514.0
12.0;514.0
13.0;509.0
14.0;504.0
15.0;499.0
0.0;495.0
1.0;506.0
2.0;512.0
3.0;520.0
4.0;526.0
5.0;526.0
6.0;525.0
7.0;523.0
8.0;519.0
9.0;515.0
10.0;516.0
11.0;518.0
12.0;516.0
13.0;516.0
14.0;518.0
15.0;518.0
0.0;516.0
1.0;520.0
2.0;530.0
3.0;540.0
4.0;548.0
5.0;556.0
6.0;556.0
7.0;556.0
8.0;556.0
9.0;550.0
10.0;543.0
11.0;537.0
12.0;532.0
13.0;526.0
14.0;523.0
15.0;524.0
0.0;526.0
1.0;528.0
2.0;532.0
3.0;532.0
4.0;532.0
5.0;535.0
6.0;537.0
7.0;535.0
8.0;532.0
9.0;531.0
10.0;529.0
11.0;526.0
12.0;521.0
13.0;516.0
14.0;513.0
15.0;512.0
0.0;511.0
1.0;510.0
2.0;510.0
3.0;511.0
4.0;511.0
5.0;511.0
6.0;511.0
7.0;510.0
8.0;508.0
9.0;505.0
10.0;503.0
11.0;497.0
12.0;492.0
13.0;487.0
14.0;483.0
15.0;480.0
0.0;480.0
1.0;480.0
2.0;481.0
3.0;484.0
4.0;489.0
5.0;490.0
6.0;493.0
7.0;495.0
8.0;495.0
9.0;493.0
10.0;489.0
11.0;484.0
12.0;481.0
13.0;480.0
14.0;479.0
15.0;475.0
0.0;472.0
1.0;470.0
2.0;469.0
3.0;470.0
4.0;473.0
5.0;476.0
6.0;480.0
7.0;486.0
8.0;491.0
9.0;492.0
10.0;491.0
11.0;491.0
12.0;487.0
13.0;482.0
14.0;482.0
15.0;480.0
0.0;472.0
1.0;472.0
2.0;476.0
3.0;476.0
4.0;480.0
5.0;488.0
6.0;488.0
7.0;489.0
8.0;494.0
9.0;495.0
10.0;493.0
11.0;496.0
12.0;494.0
13.0;488.0
14.0;483.0
15.0;479.0
0.0;474.0
1.0;472.0
2.0;478.0
3.0;483.0
4.0;486.0
5.0;490.0
6.0;495.0
7.0;497.0
8.0;499.0
9.0;504.0
10.0;504.0
11.0;504.0
12.0;503.0
13.0;501.0
14.0;498.0
15.0;497.0
0.0;491.0
1.0;485.0
2.0;482.0
3.0;481.0
4.0;480.0
5.0;480.0
6.0;484.0
7.0;488.0
8.0;491.0
9.0;490.0
10.0;488.0
11.0;489.0
12.0;487.0
13.0;487.0
14.0;486.0
15.0;485.0
0.0;486.0
1.0;488.0
2.0;490.0
3.0;495.0
4.0;504.0
5.0;519.0
6.0;533.0
7.0;550.0
8.0;571.0
9.0;593.0
10.0;615.0
11.0;636.0
12.0;656.0
13.0;676.0
14.0;692.0
15.0;707.0
0.0;726.0
1.0;744.0
2.0;764.0
3.0;786.0
4.0;809.0
5.0;819.0
6.0;817.0
7.0;811.0
8.0;799.0
9.0;783.0
10.0;764.0
11.0;734.0
12.0;694.0
13.0;654.0
14.0;612.0
15.0;568.0
0.0;523.0
1.0;486.0
2.0;454.0
3.0;428.0
4.0;411.0
5.0;401.0
6.0;393.0
7.0;389.0
8.0;392.0
9.0;396.0
10.0;400.0
11.0;406.0
12.0;415.0
13.0;423.0
14.0;428.0
15.0;424.0
0.0;418.0
1.0;412.0
2.0;409.0
3.0;404.0
4.0;403.0
5.0;406.0
6.0;408.0
7.0;409.0
8.0;415.0
9.0;424.0
10.0;433.0
11.0;444.0
12.0;455.0
13.0;463.0
14.0;468.0
15.0;472.0
0.0;472.0
1.0;471.0
2.0;472.0
3.0;473.0
4.0;474.0
5.0;479.0
6.0;483.0
7.0;484.0
8.0;488.0
9.0;494.0
10.0;501.0
11.0;510.0
12.0;517.0
13.0;523.0
14.0;522.0
15.0;523.0
0.0;522.0
1.0;519.0
2.0;513.0
3.0;510.0
4.0;505.0
5.0;502.0
6.0;502.0
7.0;504.0
8.0;505.0
9.0;508.0
10.0;516.0
11.0;524.0
12.0;530.0
13.0;538.0
14.0;543.0
15.0;544.0
0.0;545.0
1.0;544.0
2.0;539.0
3.0;534.0
4.0;527.0
5.0;522.0
6.0;520.0
7.0;520.0
8.0;519.0
9.0;519.0
10.0;520.0
11.0;525.0
12.0;532.0
13.0;540.0
14.0;545.0
15.0;548.0
0.0;551.0
1.0;552.0
2.0;550.0
3.0;544.0
4.0;537.0
5.0;532.0
6.0;525.0
7.0;527.0
8.0;530.0
9.0;528.0
10.0;524.0
11.0;529.0
12.0;533.0
13.0;535.0
14.0;536.0
15.0;538.0
0.0;539.0
1.0;539.0
2.0;541.0
3.0;539.0
4.0;533.0
5.0;529.0
6.0;527.0
7.0;526.0
8.0;526.0
9.0;527.0
10.0;526.0
11.0;528.0
12.0;533.0
13.0;536.0
14.0;539.0
15.0;543.0
0.0;545.0
1.0;546.0
2.0;545.0
3.0;546.0
4.0;543.0
5.0;539.0
6.0;533.0
7.0;529.0
8.0;526.0
9.0;524.0
10.0;524.0
11.0;524.0
12.0;526.0
13.0;531.0
14.0;533.0
15.0;538.0
0.0;542.0
1.0;545.0
2.0;547.0
3.0;547.0
4.0;544.0
5.0;539.0
6.0;533.0
7.0;531.0
8.0;531.0
9.0;532.0
10.0;529.0
11.0;530.0
12.0;532.0
13.0;536.0
14.0;539.0
15.0;545.0
0.0;552.0
1.0;556.0
2.0;557.0
3.0;557.0
4.0;556.0
5.0;553.0
6.0;550.0
7.0;550.0
8.0;548.0
9.0;544.0
10.0;543.0
11.0;543.0
12.0;543.0
13.0;546.0
14.0;551.0
15.0;556.0
0.0;562.0
1.0;564.0
2.0;567.0
3.0;572.0
4.0;572.0
5.0;568.0
6.0;561.0
7.0;555.0
8.0;551.0
9.0;544.0
10.0;538.0
11.0;536.0
12.0;539.0
13.0;542.0
14.0;544.0
15.0;550.0
0.0;553.0
1.0;554.0
2.0;558.0
3.0;559.0
4.0;560.0
5.0;560.0
6.0;559.0
7.0;556.0
8.0;550.0
9.0;545.0
10.0;540.0
11.0;536.0
12.0;535.0
13.0;532.0
14.0;533.0
15.0;536.0
0.0;539.0
1.0;542.0
2.0;545.0
3.0;546.0
4.0;544.0
5.0;543.0
6.0;536.0
7.0;534.0
8.0;530.0
9.0;526.0
10.0;522.0
11.0;515.0
12.0;513.0
13.0;516.0
14.0;515.0
15.0;514.0
0.0;515.0
1.0;519.0
2.0;524.0
3.0;529.0
4.0;532.0
5.0;529.0
6.0;526.0
7.0;522.0
8.0;517.0
9.0;514.0
10.0;511.0
11.0;504.0
12.0;498.0
13.0;497.0
14.0;494.0
15.0;492.0
0.0;493.0
1.0;497.0
2.0;501.0
3.0;507.0
4.0;510.0
5.0;510.0
6.0;509.0
7.0;506.0
8.0;500.0
9.0;494.0
10.0;491.0
11.0;488.0
12.0;483.0
13.0;481.0
14.0;480.0
15.0;479.0
0.0;480.0
1.0;484.0
2.0;488.0
3.0;494.0
4.0;499.0
5.0;501.0
6.0;498.0
7.0;496.0
8.0;494.0
9.0;490.0
10.0;487.0
11.0;487.0
12.0;486.0
13.0;485.0
14.0;484.0
15.0;480.0
0.0;476.0
1.0;476.0
2.0;479.0
3.0;479.0
4.0;481.0
5.0;487.0
6.0;492.0
7.0;494.0
8.0;495.0
9.0;495.0
10.0;492.0
11.0;487.0
12.0;482.0
13.0;476.0
14.0;475.0
15.0;475.0
0.0;473.0
1.0;474.0
2.0;474.0
3.0;480.0
4.0;484.0
5.0;487.0
6.0;489.0
7.0;487.0
8.0;489.0
9.0;491.0
10.0;490.0
11.0;487.0
12.0;483.0
13.0;480.0
14.0;478.0
15.0;477.0
0.0;480.0
1.0;481.0
2.0;482.0
3.0;487.0
4.0;492.0
5.0;495.0
6.0;499.0
7.0;502.0
8.0;501.0
9.0;501.0
10.0;499.0
11.0;495.0
12.0;491.0
13.0;489.0
14.0;485.0
15.0;482.0
0.0;480.0
1.0;483.0
2.0;485.0
3.0;488.0
4.0;497.0
5.0;501.0
6.0;506.0
7.0;512.0
8.0;515.0
9.0;512.0
10.0;511.0
11.0;512.0
12.0;510.0
13.0;508.0
14.0;506.0
15.0;499.0
0.0;495.0
1.0;492.0
2.0;491.0
3.0;492.0
4.0;495.0
5.0;499.0
6.0;500.0
7.0;501.0
8.0;503.0
9.0;504.0
10.0;508.0
11.0;510.0
12.0;510.0
13.0;506.0
14.0;501.0
15.0;499.0
0.0;496.0
1.0;492.0
2.0;491.0
3.0;493.0
4.0;498.0
5.0;506.0
6.0;508.0
7.0;510.0
8.0;512.0
9.0;513.0
10.0;512.0
11.0;512.0
12.0;509.0
13.0;506.0
14.0;500.0
15.0;497.0
0.0;496.0
1.0;497.0
2.0;499.0
3.0;499.0
4.0;497.0
5.0;498.0
6.0;503.0
7.0;508.0
8.0;513.0
9.0;515.0
10.0;520.0
11.0;523.0
12.0;523.0
13.0;521.0
14.0;517.0
15.0;512.0
0.0;511.0
1.0;505.0
2.0;501.0
3.0;497.0
4.0;494.0
5.0;493.0
6.0;495.0
7.0;498.0
8.0;500.0
9.0;503.0
10.0;505.0
11.0;507.0
12.0;509.0
13.0;509.0
14.0;508.0
15.0;506.0
0.0;504.0
1.0;501.0
2.0;499.0
3.0;497.0
4.0;497.0
5.0;496.0
6.0;499.0
7.0;504.0
8.0;510.0
9.0;515.0
10.0;520.0
11.0;525.0
12.0;529.0
13.0;532.0
14.0;532.0
15.0;529.0
0.0;526.0
1.0;521.0
2.0;517.0
3.0;516.0
4.0;517.0
5.0;517.0
6.0;511.0
7.0;507.0
8.0;508.0
9.0;510.0
10.0;514.0
11.0;518.0
12.0;519.0
13.0;515.0
14.0;514.0
15.0;514.0
0.0;509.0
1.0;506.0
2.0;504.0
3.0;505.0
4.0;504.0
5.0;510.0
6.0;515.0
7.0;519.0
8.0;527.0
9.0;535.0
10.0;542.0
11.0;542.0
12.0;547.0
13.0;546.0
14.0;542.0
15.0;537.0
0.0;532.0
1.0;526.0
2.0;520.0
3.0;515.0
4.0;510.0
5.0;506.0
6.0;505.0
7.0;507.0
8.0;509.0
9.0;512.0
10.0;515.0
11.0;519.0
12.0;523.0
13.0;527.0
14.0;525.0
15.0;522.0
0.0;518.0
1.0;511.0
2.0;506.0
3.0;499.0
4.0;496.0
5.0;494.0
6.0;491.0
7.0;488.0
8.0;487.0
9.0;488.0
10.0;490.0
11.0;492.0
12.0;496.0
13.0;499.0
14.0;498.0
15.0;497.0
0.0;494.0
1.0;492.0
2.0;490.0
3.0;484.0
4.0;478.0
5.0;471.0
6.0;469.0
7.0;464.0
8.0;462.0
9.0;464.0
10.0;470.0
11.0;475.0
12.0;477.0
13.0;480.0
14.0;483.0
15.0;484.0
0.0;486.0
1.0;488.0
2.0;487.0
3.0;483.0
4.0;480.0
5.0;476.0
6.0;471.0
7.0;467.0
8.0;469.0
9.0;470.0
10.0;472.0
11.0;473.0
12.0;477.0
13.0;482.0
14.0;487.0
15.0;489.0
0.0;489.0
1.0;488.0
2.0;483.0
3.0;475.0
4.0;467.0
5.0;464.0
6.0;462.0
7.0;462.0
8.0;464.0
9.0;467.0
10.0;468.0
11.0;472.0
12.0;478.0
13.0;482.0
14.0;487.0
15.0;488.0
0.0;490.0
1.0;491.0
2.0;490.0
3.0;487.0
4.0;482.0
5.0;477.0
6.0;476.0
7.0;471.0
8.0;467.0
9.0;465.0
10.0;462.0
11.0;460.0
12.0;467.0
13.0;475.0
14.0;486.0
15.0;494.0
0.0;495.0
1.0;493.0
2.0;492.0
3.0;486.0
4.0;480.0
5.0;476.0
6.0;473.0
7.0;475.0
8.0;475.0
9.0;474.0
10.0;472.0
11.0;471.0
12.0;471.0
13.0;472.0
14.0;473.0
15.0;472.0
0.0;472.0
1.0;474.0
2.0;473.0
3.0;467.0
4.0;463.0
5.0;457.0
6.0;457.0
7.0;458.0
8.0;458.0
9.0;458.0
10.0;463.0
11.0;473.0
12.0;484.0
13.0;498.0
14.0;516.0
15.0;534.0
0.0;559.0
1.0;585.0
2.0;608.0
3.0;629.0
4.0;649.0
5.0;668.0
6.0;682.0
7.0;698.0
8.0;717.0
9.0;736.0
10.0;758.0
11.0;780.0
12.0;798.0
13.0;807.0
14.0;806.0
15.0;798.0
0.0;782.0
1.0;757.0
2.0;727.0
3.0;690.0
4.0;652.0
5.0;612.0
6.0;567.0
7.0;520.0
8.0;479.0
9.0;444.0
10.0;415.0
11.0;394.0
12.0;380.0
13.0;370.0
14.0;362.0
15.0;360.0
0.0;361.0
1.0;363.0
2.0;367.0
3.0;372.0
4.0;376.0
5.0;381.0
6.0;386.0
7.0;390.0
8.0;390.0
9.0;389.0
10.0;387.0
11.0;387.0
12.0;391.0
13.0;395.0
14.0;399.0
15.0;404.0
0.0;414.0
1.0;422.0
2.0;435.0
3.0;444.0
4.0;444.0
5.0;444.0
6.0;445.0
7.0;446.0
8.0;445.0
9.0;449.0
10.0;453.0
11.0;454.0
12.0;457.0
13.0;460.0
14.0;461.0
15.0;462.0
0.0;465.0
1.0;468.0
2.0;476.0
3.0;481.0
4.0;489.0
5.0;497.0
6.0;501.0
7.0;500.0
8.0;495.0
9.0;490.0
10.0;486.0
11.0;483.0
12.0;483.0
13.0;487.0
14.0;491.0
15.0;490.0
0.0;489.0
1.0;491.0
2.0;493.0
3.0;499.0
4.0;504.0
5.0;508.0
6.0;509.0
7.0;508.0
8.0;506.0
9.0;503.0
10.0;500.0
11.0;498.0
12.0;498.0
13.0;496.0
14.0;498.0
15.0;501.0
0.0;501.0
1.0;504.0
2.0;510.0
3.0;513.0
4.0;517.0
5.0;523.0
6.0;525.0
7.0;525.0
8.0;525.0
9.0;523.0
10.0;517.0
11.0;512.0
12.0;506.0
13.0;500.0
14.0;499.0
15.0;500.0
0.0;503.0
1.0;505.0
2.0;506.0
3.0;512.0
4.0;516.0
5.0;520.0
6.0;521.0
7.0;520.0
8.0;523.0
9.0;525.0
10.0;523.0
11.0;517.0
12.0;514.0
13.0;515.0
14.0;517.0
15.0;518.0
0.0;518.0
1.0;518.0
2.0;520.0
3.0;526.0
4.0;531.0
5.0;534.0
6.0;537.0
7.0;540.0
8.0;539.0
9.0;537.0
10.0;534.0
11.0;528.0
12.0;525.0
13.0;520.0
14.0;515.0
15.0;510.0
0.0;511.0
1.0;511.0
2.0;511.0
3.0;512.0
4.0;518.0
5.0;521.0
6.0;527.0
7.0;534.0
8.0;535.0
9.0;536.0
10.0;537.0
11.0;535.0
12.0;528.0
13.0;525.0
14.0;522.0
15.0;519.0
0.0;519.0
1.0;521.0
2.0;520.0
3.0;520.0
4.0;524.0
5.0;528.0
6.0;532.0
7.0;537.0
8.0;538.0
9.0;538.0
10.0;536.0
11.0;534.0
12.0;531.0
13.0;528.0
14.0;526.0
15.0;524.0
0.0;519.0
1.0;515.0
2.0;519.0
3.0;519.0
4.0;522.0
5.0;529.0
6.0;537.0
7.0;543.0
8.0;548.0
9.0;551.0
10.0;550.0
11.0;547.0
12.0;545.0
13.0;543.0
14.0;541.0
15.0;541.0
0.0;540.0
1.0;536.0
2.0;533.0
3.0;534.0
4.0;535.0
5.0;536.0
6.0;535.0
7.0;535.0
8.0;536.0
9.0;537.0
10.0;537.0
11.0;540.0
12.0;540.0
13.0;538.0
14.0;533.0
15.0;538.0
0.0;541.0
1.0;538.0
2.0;535.0
3.0;534.0
4.0;535.0
5.0;536.0
6.0;539.0
7.0;542.0
8.0;543.0
9.0;544.0
10.0;544.0
11.0;541.0
12.0;538.0
13.0;535.0
14.0;529.0
15.0;521.0
0.0;514.0
1.0;508.0
2.0;502.0
3.0;499.0
4.0;503.0
5.0;506.0
6.0;510.0
7.0;516.0
8.0;522.0
9.0;525.0
10.0;527.0
11.0;528.0
12.0;527.0
13.0;526.0
14.0;522.0
15.0;517.0
0.0;511.0
1.0;504.0
2.0;497.0
3.0;493.0
4.0;492.0
5.0;493.0
6.0;494.0
7.0;495.0
8.0;499.0
9.0;504.0
10.0;510.0
11.0;513.0
12.0;512.0
13.0;509.0
14.0;507.0
15.0;503.0
0.0;497.0
1.0;492.0
2.0;488.0
3.0;481.0
4.0;477.0
5.0;478.0
6.0;480.0
7.0;479.0
8.0;480.0
9.0;485.0
10.0;488.0
11.0;493.0
12.0;496.0
13.0;493.0
14.0;489.0
15.0;487.0
0.0;484.0
1.0;480.0
2.0;476.0
3.0;473.0
4.0;468.0
5.0;466.0
6.0;468.0
7.0;471.0
8.0;472.0
9.0;474.0
10.0;477.0
11.0;482.0
12.0;489.0
13.0;494.0
14.0;494.0
15.0;493.0
0.0;492.0
1.0;489.0
2.0;487.0
3.0;484.0
4.0;479.0
5.0;476.0
6.0;477.0
7.0;479.0
8.0;479.0
9.0;481.0
10.0;482.0
11.0;484.0
12.0;488.0
13.0;490.0
14.0;488.0
15.0;490.0
0.0;491.0
1.0;489.0
2.0;485.0
3.0;479.0
4.0;474.0
5.0;471.0
6.0;470.0
7.0;471.0
8.0;471.0
9.0;471.0
10.0;478.0
11.0;486.0
12.0;490.0
13.0;494.0
14.0;497.0
15.0;500.0
0.0;502.0
1.0;502.0
2.0;499.0
3.0;492.0
4.0;484.0
5.0;483.0
6.0;480.0
7.0;481.0
8.0;483.0
9.0;484.0
10.0;485.0
11.0;488.0
12.0;491.0
13.0;496.0
14.0;503.0
15.0;508.0
0.0;508.0
1.0;510.0
2.0;508.0
3.0;504.0
4.0;499.0
5.0;496.0
6.0;493.0
7.0;489.0
8.0;489.0
9.0;489.0
10.0;489.0
11.0;494.0
12.0;497.0
13.0;499.0
14.0;504.0
15.0;509.0
0.0;510.0
1.0;508.0
2.0;505.0
3.0;503.0
4.0;501.0
5.0;500.0
6.0;498.0
7.0;496.0
8.0;493.0
9.0;491.0
10.0;490.0
11.0;489.0
12.0;494.0
13.0;500.0
14.0;509.0
15.0;520.0
0.0;528.0
1.0;528.0
2.0;527.0
3.0;525.0
4.0;519.0
5.0;513.0
6.0;513.0
7.0;509.0
8.0;504.0
9.0;501.0
10.0;502.0
11.0;500.0
12.0;500.0
13.0;503.0
14.0;509.0
15.0;515.0
0.0;520.0
1.0;525.0
2.0;525.0
3.0;528.0
4.0;527.0
5.0;522.0
6.0;518.0
7.0;510.0
8.0;503.0
9.0;502.0
10.0;499.0
11.0;498.0
12.0;499.0
13.0;503.0
14.0;508.0
15.0;514.0
0.0;521.0
1.0;524.0
2.0;524.0
3.0;525.0
4.0;525.0
5.0;526.0
6.0;519.0
7.0;515.0
8.0;512.0
9.0;505.0
10.0;507.0
11.0;506.0
12.0;506.0
13.0;510.0
14.0;515.0
15.0;521.0
0.0;526.0
1.0;532.0
2.0;537.0
3.0;539.0
4.0;539.0
5.0;535.0
6.0;530.0
7.0;528.0
8.0;528.0
9.0;527.0
10.0;524.0
11.0;519.0
12.0;517.0
13.0;514.0
14.0;512.0
15.0;514.0
0.0;517.0
1.0;517.0
2.0;521.0
3.0;523.0
4.0;522.0
5.0;520.0
6.0;519.0
7.0;516.0
8.0;512.0
9.0;509.0
10.0;506.0
11.0;507.0
12.0;511.0
13.0;516.0
14.0;518.0
15.0;524.0
0.0;531.0
1.0;540.0
2.0;548.0
3.0;556.0
4.0;558.0
5.0;556.0
6.0;553.0
7.0;549.0
8.0;544.0
9.0;539.0
10.0;532.0
11.0;526.0
12.0;523.0
13.0;521.0
14.0;520.0
15.0;520.0
0.0;525.0
1.0;531.0
2.0;535.0
3.0;538.0
4.0;540.0
5.0;538.0
6.0;536.0
7.0;532.0
8.0;526.0
9.0;520.0
10.0;516.0
11.0;515.0
12.0;513.0
13.0;510.0
14.0;510.0
15.0;509.0
0.0;509.0
1.0;507.0
2.0;506.0
3.0;506.0
4.0;507.0
5.0;505.0
6.0;503.0
7.0;501.0
8.0;496.0
9.0;491.0
10.0;485.0
11.0;482.0
12.0;481.0
13.0;478.0
14.0;475.0
15.0;476.0
0.0;478.0
1.0;480.0
2.0;485.0
3.0;492.0
4.0;499.0
5.0;501.0
6.0;504.0
7.0;504.0
8.0;504.0
9.0;499.0
10.0;491.0
11.0;487.0
12.0;483.0
13.0;480.0
14.0;478.0
15.0;475.0
0.0;475.0
1.0;478.0
2.0;483.0
3.0;489.0
4.0;491.0
5.0;497.0
6.0;503.0
7.0;502.0
8.0;504.0
9.0;503.0
10.0;498.0
11.0;494.0
12.0;491.0
13.0;489.0
14.0;486.0
15.0;484.0
0.0;484.0
1.0;483.0
2.0;485.0
3.0;491.0
4.0;499.0
5.0;504.0
6.0;508.0
7.0;511.0
8.0;511.0
9.0;512.0
10.0;511.0
11.0;508.0
12.0;504.0
13.0;502.0
14.0;500.0
15.0;496.0
0.0;499.0
1.0;501.0
2.0;499.0
3.0;503.0
4.0;508.0
5.0;510.0
6.0;513.0
7.0;518.0
8.0;520.0
9.0;520.0
10.0;518.0
11.0;513.0
12.0;505.0
13.0;500.0
14.0;495.0
15.0;492.0
0.0;493.0
1.0;492.0
2.0;491.0
3.0;489.0
4.0;486.0
5.0;485.0
6.0;486.0
7.0;488.0
8.0;490.0
9.0;490.0
10.0;491.0
11.0;489.0
12.0;485.0
13.0;485.0
14.0;486.0
15.0;490.0
0.0;495.0
1.0;498.0
2.0;505.0
3.0;515.0
4.0;530.0
5.0;550.0
6.0;569.0
7.0;593.0
8.0;618.0
9.0;640.0
10.0;662.0
11.0;684.0
12.0;704.0
13.0;719.0
14.0;736.0
15.0;753.0
0.0;771.0
1.0;792.0
2.0;814.0
3.0;826.0
4.0;829.0
5.0;825.0
6.0;812.0
7.0;793.0
8.0;770.0
9.0;738.0
10.0;701.0
11.0;662.0
12.0;620.0
13.0;575.0
14.0;529.0
15.0;490.0
0.0;457.0
1.0;430.0
2.0;411.0
3.0;399.0
4.0;391.0
5.0;387.0
6.0;386.0
7.0;387.0
8.0;387.0
9.0;392.0
10.0;400.0
11.0;404.0
12.0;408.0
13.0;408.0
14.0;404.0
15.0;404.0
0.0;404.0
1.0;403.0
2.0;407.0
3.0;408.0
4.0;410.0
5.0;414.0
6.0;421.0
7.0;429.0
8.0;438.0
9.0;447.0
10.0;455.0
11.0;462.0
12.0;465.0
13.0;467.0
14.0;468.0
15.0;470.0
0.0;469.0
1.0;468.0
2.0;466.0
3.0;465.0
4.0;468.0
5.0;474.0
6.0;481.0
7.0;491.0
8.0;501.0
9.0;512.0
10.0;521.0
11.0;523.0
12.0;520.0
13.0;518.0
14.0;514.0
15.0;517.0
0.0;517.0
1.0;518.0
2.0;516.0
3.0;513.0
4.0;512.0
5.0;511.0
6.0;510.0
7.0;515.0
8.0;520.0
9.0;523.0
10.0;525.0
11.0;528.0
12.0;531.0
13.0;532.0
14.0;534.0
15.0;535.0
0.0;536.0
1.0;532.0
2.0;526.0
3.0;519.0
4.0;515.0
5.0;512.0
6.0;511.0
7.0;512.0
8.0;515.0
9.0;519.0
10.0;521.0
11.0;522.0
12.0;531.0
13.0;536.0
14.0;534.0
15.0;530.0
0.0;529.0
1.0;527.0
2.0;527.0
3.0;522.0
4.0;519.0
5.0;516.0
6.0;515.0
7.0;518.0
8.0;519.0
9.0;523.0
10.0;527.0
11.0;530.0
12.0;534.0
13.0;536.0
14.0;536.0
15.0;535.0
0.0;535.0
1.0;533.0
2.0;528.0
3.0;524.0
4.0;522.0
5.0;519.0
6.0;518.0
7.0;520.0
8.0;521.0
9.0;522.0
10.0;525.0
11.0;527.0
12.0;528.0
13.0;531.0
14.0;533.0
15.0;533.0
0.0;531.0
1.0;528.0
2.0;523.0
3.0;518.0
4.0;514.0
5.0;512.0
6.0;511.0
7.0;513.0
8.0;512.0
9.0;509.0
10.0;511.0
11.0;518.0
12.0;527.0
13.0;534.0
14.0;539.0
15.0;540.0
0.0;536.0
1.0;536.0
2.0;533.0
3.0;527.0
4.0;518.0
5.0;511.0
6.0;509.0
7.0;509.0
8.0;514.0
9.0;517.0
10.0;518.0
11.0;523.0
12.0;529.0
13.0;534.0
14.0;537.0
15.0;540.0
0.0;541.0
1.0;540.0
2.0;538.0
3.0;535.0
4.0;531.0
5.0;526.0
6.0;522.0
7.0;520.0
8.0;520.0
9.0;523.0
10.0;523.0
11.0;524.0
12.0;528.0
13.0;532.0
14.0;535.0
15.0;541.0
0.0;546.0
1.0;546.0
2.0;544.0
3.0;544.0
4.0;540.0
5.0;530.0
6.0;524.0
7.0;521.0
8.0;525.0
9.0;529.0
10.0;528.0
11.0;527.0
12.0;526.0
13.0;528.0
14.0;531.0
15.0;533.0
0.0;539.0
1.0;541.0
2.0;540.0
3.0;540.0
4.0;538.0
5.0;532.0
6.0;527.0
7.0;522.0
8.0;519.0
9.0;517.0
10.0;514.0
11.0;510.0
12.0;508.0
13.0;508.0
14.0;510.0
15.0;515.0
0.0;524.0
1.0;529.0
2.0;530.0
3.0;529.0
4.0;526.0
5.0;521.0
6.0;515.0
7.0;510.0
8.0;504.0
9.0;499.0
10.0;495.0
11.0;495.0
12.0;496.0
13.0;495.0
14.0;497.0
15.0;502.0
0.0;508.0
1.0;512.0
2.0;515.0
3.0;513.0
4.0;510.0
5.0;506.0
6.0;503.0
7.0;500.0
8.0;496.0
9.0;492.0
10.0;488.0
11.0;486.0
12.0;486.0
13.0;486.0
14.0;487.0
15.0;489.0
0.0;492.0
1.0;495.0
2.0;501.0
3.0;505.0
4.0;502.0
5.0;501.0
6.0;500.0
7.0;496.0
8.0;492.0
9.0;483.0
10.0;473.0
11.0;468.0
12.0;466.0
13.0;462.0
14.0;460.0
15.0;461.0
0.0;467.0
1.0;470.0
2.0;475.0
3.0;479.0
4.0;480.0
5.0;480.0
6.0;478.0
7.0;473.0
8.0;467.0
9.0;463.0
10.0;458.0
11.0;458.0
12.0;457.0
13.0;455.0
14.0;456.0
15.0;460.0
0.0;465.0
1.0;471.0
2.0;476.0
3.0;484.0
4.0;489.0
5.0;489.0
6.0;486.0
7.0;483.0
8.0;480.0
9.0;469.0
10.0;459.0
11.0;459.0
12.0;458.0
13.0;459.0
14.0;460.0
15.0;461.0
0.0;463.0
1.0;467.0
2.0;470.0
3.0;476.0
4.0;481.0
5.0;482.0
6.0;482.0
7.0;484.0
8.0;483.0
9.0;482.0
10.0;480.0
11.0;479.0
12.0;478.0
13.0;473.0
14.0;473.0
15.0;473.0
0.0;473.0
1.0;477.0
2.0;480.0
3.0;483.0
4.0;489.0
5.0;492.0
6.0;491.0
7.0;489.0
8.0;488.0
9.0;487.0
10.0;487.0
11.0;486.0
12.0;483.0
13.0;482.0
14.0;482.0
15.0;482.0
0.0;482.0
1.0;482.0
2.0;483.0
3.0;488.0
4.0;494.0
5.0;497.0
6.0;501.0
7.0;501.0
8.0;502.0
9.0;502.0
10.0;500.0
11.0;498.0
12.0;493.0
13.0;489.0
14.0;487.0
15.0;488.0
0.0;487.0
1.0;487.0
2.0;491.0
3.0;496.0
4.0;500.0
5.0;502.0
6.0;504.0
7.0;507.0
8.0;508.0
9.0;511.0
10.0;512.0
11.0;509.0
12.0;505.0
13.0;503.0
14.0;496.0
15.0;489.0
0.0;489.0
1.0;487.0
2.0;483.0
3.0;486.0
4.0;492.0
5.0;498.0
6.0;503.0
7.0;507.0
8.0;510.0
9.0;509.0
10.0;508.0
11.0;506.0
12.0;500.0
13.0;496.0
14.0;494.0
15.0;493.0
0.0;491.0
1.0;489.0
2.0;489.0
3.0;492.0
4.0;495.0
5.0;500.0
6.0;504.0
7.0;511.0
8.0;515.0
9.0;518.0
10.0;523.0
11.0;525.0
12.0;521.0
13.0;517.0
14.0;512.0
15.0;505.0
0.0;500.0
1.0;501.0
2.0;501.0
3.0;503.0
4.0;507.0
5.0;511.0
6.0;512.0
7.0;515.0
8.0;516.0
9.0;516.0
10.0;513.0
11.0;511.0
12.0;511.0
13.0;509.0
14.0;510.0
15.0;505.0
0.0;506.0
1.0;507.0
2.0;507.0
3.0;507.0
4.0;508.0
5.0;512.0
6.0;515.0
7.0;517.0
8.0;522.0
9.0;529.0
10.0;531.0
11.0;531.0
12.0;529.0
13.0;528.0
14.0;525.0
15.0;521.0
0.0;517.0
1.0;515.0
2.0;514.0
3.0;513.0
4.0;514.0
5.0;516.0
6.0;519.0
7.0;521.0
8.0;522.0
9.0;525.0
10.0;526.0
11.0;525.0
12.0;524.0
13.0;526.0
14.0;525.0
15.0;521.0
0.0;517.0
1.0;512.0
2.0;508.0
3.0;507.0
4.0;508.0
5.0;510.0
6.0;515.0
7.0;523.0
8.0;527.0
9.0;533.0
10.0;537.0
11.0;540.0
12.0;538.0
13.0;536.0
14.0;534.0
15.0;532.0
0.0;531.0
1.0;528.0
2.0;525.0
3.0;519.0
4.0;515.0
5.0;514.0
6.0;516.0
7.0;519.0
8.0;526.0
9.0;531.0
10.0;539.0
11.0;544.0
12.0;543.0
13.0;542.0
14.0;542.0
15.0;536.0
0.0;529.0
1.0;525.0
2.0;518.0
3.0;511.0
4.0;507.0
5.0;506.0
6.0;501.0
7.0;504.0
8.0;508.0
9.0;511.0
10.0;517.0
11.0;520.0
12.0;524.0
13.0;518.0
14.0;512.0
15.0;507.0
0.0;500.0
1.0;495.0
2.0;494.0
3.0;489.0
4.0;484.0
5.0;484.0
6.0;484.0
7.0;485.0
8.0;487.0
9.0;491.0
10.0;494.0
11.0;497.0
12.0;499.0
13.0;501.0
14.0;501.0
15.0;500.0
0.0;497.0
1.0;493.0
2.0;489.0
3.0;485.0
4.0;480.0
5.0;475.0
6.0;477.0
7.0;472.0
8.0;474.0
9.0;476.0
10.0;479.0
11.0;482.0
12.0;486.0
13.0;490.0
14.0;489.0
15.0;488.0
0.0;488.0
1.0;486.0
2.0;483.0
3.0;479.0
4.0;475.0
5.0;473.0
6.0;474.0
7.0;478.0
8.0;480.0
9.0;483.0
10.0;489.0
11.0;496.0
12.0;504.0
13.0;509.0
14.0;510.0
15.0;502.0
0.0;496.0
1.0;491.0
2.0;486.0
3.0;480.0
4.0;475.0
5.0;471.0
6.0;468.0
7.0;466.0
8.0;465.0
9.0;466.0
10.0;470.0
11.0;474.0
12.0;477.0
13.0;483.0
14.0;490.0
15.0;493.0
0.0;494.0
1.0;495.0
2.0;492.0
3.0;486.0
4.0;485.0
5.0;484.0
6.0;482.0
7.0;483.0
8.0;483.0
9.0;483.0
10.0;484.0
11.0;487.0
12.0;490.0
13.0;493.0
14.0;499.0
15.0;504.0
0.0;503.0
1.0;499.0
2.0;496.0
3.0;493.0
4.0;487.0
5.0;482.0
6.0;476.0
7.0;469.0
8.0;466.0
9.0;466.0
10.0;468.0
11.0;472.0
12.0;477.0
13.0;485.0
14.0;495.0
15.0;504.0
0.0;514.0
1.0;523.0
2.0;536.0
3.0;546.0
4.0;553.0
5.0;561.0
6.0;572.0
7.0;588.0
8.0;608.0
9.0;629.0
10.0;650.0
11.0;670.0
12.0;693.0
13.0;718.0
14.0;742.0
15.0;767.0
0.0;793.0
1.0;816.0
2.0;837.0
3.0;847.0
4.0;840.0
5.0;831.0
6.0;808.0
7.0;778.0
8.0;748.0
9.0;712.0
10.0;673.0
11.0;634.0
12.0;592.0
13.0;555.0
14.0;523.0
15.0;496.0
0.0;474.0
1.0;456.0
2.0;439.0
3.0;421.0
4.0;407.0
5.0;394.0
6.0;380.0
7.0;369.0
8.0;361.0
9.0;355.0
10.0;353.0
11.0;359.0
12.0;366.0
13.0;374.0
14.0;384.0
15.0;391.0
0.0;400.0
1.0;411.0
2.0;418.0
3.0;422.0
4.0;426.0
5.0;428.0
6.0;424.0
7.0;421.0
8.0;420.0
9.0;419.0
10.0;421.0
11.0;427.0
12.0;436.0
13.0;441.0
14.0;448.0
15.0;460.0
0.0;467.0
1.0;475.0
2.0;481.0
3.0;487.0
4.0;492.0
5.0;497.0
6.0;499.0
7.0;499.0
8.0;499.0
9.0;499.0
10.0;497.0
11.0;498.0
12.0;501.0
13.0;503.0
14.0;504.0
15.0;507.0
0.0;511.0
1.0;514.0
2.0;517.0
3.0;518.0
4.0;519.0
5.0;519.0
6.0;516.0
7.0;511.0
8.0;505.0
9.0;502.0
10.0;499.0
11.0;495.0
12.0;494.0
13.0;496.0
14.0;499.0
15.0;503.0
0.0;506.0
1.0;510.0
2.0;516.0
3.0;521.0
4.0;526.0
5.0;528.0
6.0;528.0
7.0;528.0
8.0;526.0
9.0;522.0
10.0;518.0
11.0;512.0
12.0;511.0
13.0;512.0
14.0;515.0
15.0;517.0
0.0;519.0
1.0;522.0
2.0;525.0
3.0;531.0
4.0;536.0
5.0;536.0
6.0;534.0
7.0;534.0
8.0;533.0
9.0;528.0
10.0;527.0
11.0;524.0
12.0;519.0
13.0;518.0
14.0;517.0
15.0;519.0
0.0;518.0
1.0;526.0
2.0;534.0
3.0;537.0
4.0;539.0
5.0;542.0
6.0;545.0
7.0;546.0
8.0;543.0
9.0;540.0
10.0;536.0
11.0;533.0
12.0;527.0
13.0;521.0
14.0;518.0
15.0;518.0
0.0;516.0
1.0;520.0
2.0;522.0
3.0;524.0
4.0;528.0
5.0;531.0
6.0;534.0
7.0;535.0
8.0;538.0
9.0;537.0
10.0;535.0
11.0;534.0
12.0;533.0
13.0;528.0
14.0;524.0
15.0;525.0
0.0;525.0
1.0;525.0
2.0;531.0
3.0;536.0
4.0;540.0
5.0;548.0
6.0;553.0
7.0;552.0
8.0;553.0
9.0;550.0
10.0;546.0
11.0;542.0
12.0;541.0
13.0;539.0
14.0;537.0
15.0;536.0
0.0;536.0
1.0;536.0
2.0;535.0
3.0;539.0
4.0;545.0
5.0;547.0
6.0;550.0
7.0;550.0
8.0;551.0
9.0;551.0
10.0;549.0
11.0;547.0
12.0;542.0
13.0;538.0
14.0;536.0
15.0;536.0
0.0;538.0
1.0;536.0
2.0;533.0
3.0;533.0
4.0;539.0
5.0;543.0
6.0;548.0
7.0;551.0
8.0;554.0
9.0;556.0
10.0;558.0
11.0;557.0
12.0;552.0
13.0;545.0
14.0;543.0
15.0;543.0
0.0;540.0
1.0;540.0
2.0;539.0
3.0;539.0
4.0;541.0
5.0;546.0
6.0;547.0
7.0;550.0
8.0;558.0
9.0;559.0
10.0;557.0
11.0;556.0
12.0;552.0
13.0;545.0
14.0;540.0
15.0;535.0
0.0;532.0
1.0;528.0
2.0;527.0
3.0;525.0
4.0;525.0
5.0;527.0
6.0;531.0
7.0;534.0
8.0;540.0
9.0;542.0
10.0;540.0
11.0;538.0
12.0;535.0
13.0;531.0
14.0;525.0
15.0;518.0
0.0;514.0
1.0;513.0
2.0;513.0
3.0;511.0
4.0;507.0
5.0;507.0
6.0;509.0
7.0;511.0
8.0;513.0
9.0;517.0
10.0;519.0
11.0;518.0
12.0;515.0
13.0;512.0
14.0;506.0
15.0;504.0
0.0;500.0
1.0;496.0
2.0;491.0
3.0;491.0
4.0;492.0
5.0;494.0
6.0;497.0
7.0;500.0
8.0;499.0
9.0;499.0
10.0;501.0
11.0;502.0
12.0;499.0
13.0;497.0
14.0;492.0
15.0;487.0
0.0;483.0
1.0;480.0
2.0;478.0
3.0;476.0
4.0;475.0
5.0;474.0
6.0;475.0
7.0;478.0
8.0;481.0
9.0;484.0
10.0;487.0
11.0;491.0
12.0;489.0
13.0;489.0
14.0;489.0
15.0;488.0
0.0;484.0
1.0;482.0
2.0;479.0
3.0;475.0
4.0;475.0
5.0;476.0
6.0;470.0
7.0;469.0
8.0;471.0
9.0;471.0
10.0;476.0
11.0;489.0
12.0;502.0
13.0;508.0
14.0;514.0
15.0;519.0
0.0;519.0
1.0;512.0
2.0;499.0
3.0;486.0
4.0;469.0
5.0;457.0
6.0;451.0
7.0;449.0
8.0;453.0
9.0;462.0
10.0;475.0
11.0;491.0
12.0;505.0
13.0;516.0
14.0;521.0
15.0;525.0
0.0;522.0
1.0;508.0
2.0;493.0
3.0;488.0
4.0;484.0
5.0;482.0
6.0;479.0
7.0;476.0
8.0;475.0
9.0;473.0
10.0;474.0
11.0;477.0
12.0;489.0
13.0;495.0
14.0;496.0
15.0;498.0
0.0;498.0
1.0;493.0
2.0;484.0
3.0;482.0
4.0;480.0
5.0;480.0
6.0;482.0
7.0;482.0
8.0;483.0
9.0;487.0
10.0;490.0
11.0;491.0
12.0;494.0
13.0;500.0
14.0;500.0
15.0;500.0
0.0;502.0
1.0;499.0
2.0;489.0
3.0;482.0
4.0;479.0
5.0;476.0
6.0;478.0
7.0;481.0
8.0;487.0
9.0;491.0
10.0;496.0
11.0;502.0
12.0;506.0
13.0;510.0
14.0;511.0
15.0;512.0
0.0;513.0
1.0;512.0
2.0;505.0
3.0;491.0
4.0;478.0
5.0;470.0
6.0;460.0
7.0;454.0
8.0;455.0
9.0;461.0
10.0;467.0
11.0;477.0
12.0;487.0
13.0;496.0
14.0;505.0
15.0;510.0
0.0;512.0
1.0;519.0
2.0;531.0
3.0;537.0
4.0;538.0
5.0;533.0
6.0;520.0
7.0;502.0
8.0;487.0
9.0;481.0
10.0;479.0
11.0;480.0
12.0;484.0
13.0;489.0
14.0;499.0
15.0;513.0
0.0;523.0
1.0;527.0
2.0;528.0
3.0;527.0
4.0;524.0
5.0;520.0
6.0;515.0
7.0;512.0
8.0;512.0
9.0;510.0
10.0;509.0
11.0;508.0
12.0;511.0
13.0;512.0
14.0;510.0
15.0;514.0
0.0;521.0
1.0;524.0
2.0;523.0
3.0;521.0
4.0;519.0
5.0;517.0
6.0;514.0
7.0;510.0
8.0;506.0
9.0;504.0
10.0;504.0
11.0;503.0
12.0;501.0
13.0;508.0
14.0;515.0
15.0;519.0
0.0;519.0
1.0;520.0
2.0;528.0
3.0;536.0
4.0;540.0
5.0;536.0
6.0;527.0
7.0;518.0
8.0;507.0
9.0;494.0
10.0;490.0
11.0;485.0
12.0;481.0
13.0;483.0
14.0;491.0
15.0;501.0
0.0;509.0
1.0;516.0
2.0;520.0
3.0;521.0
4.0;522.0
5.0;521.0
6.0;516.0
7.0;512.0
8.0;511.0
9.0;505.0
10.0;500.0
11.0;504.0
12.0;509.0
13.0;508.0
14.0;508.0
15.0;509.0
0.0;511.0
1.0;515.0
2.0;519.0
3.0;523.0
4.0;520.0
5.0;514.0
6.0;508.0
7.0;505.0
8.0;510.0
9.0;512.0
10.0;512.0
11.0;513.0
12.0;515.0
13.0;518.0
14.0;519.0
15.0;526.0
0.0;534.0
1.0;544.0
2.0;550.0
3.0;553.0
4.0;550.0
5.0;545.0
6.0;539.0
7.0;532.0
8.0;525.0
9.0;522.0
10.0;520.0
11.0;517.0
12.0;516.0
13.0;517.0
14.0;519.0
15.0;523.0
0.0;527.0
1.0;531.0
2.0;535.0
3.0;538.0
4.0;536.0
5.0;527.0
6.0;522.0
7.0;521.0
8.0;514.0
9.0;508.0
10.0;502.0
11.0;494.0
12.0;488.0
13.0;488.0
14.0;488.0
15.0;486.0
0.0;489.0
1.0;493.0
2.0;492.0
3.0;492.0
4.0;493.0
5.0;491.0
6.0;490.0
7.0;491.0
8.0;492.0
9.0;486.0
10.0;480.0
11.0;476.0
12.0;472.0
13.0;472.0
14.0;471.0
15.0;471.0
0.0;471.0
1.0;474.0
2.0;477.0
3.0;480.0
4.0;479.0
5.0;482.0
6.0;485.0
7.0;485.0
8.0;483.0
9.0;480.0
10.0;478.0
11.0;481.0
12.0;483.0
13.0;483.0
14.0;483.0
15.0;482.0
0.0;484.0
1.0;489.0
2.0;491.0
3.0;494.0
4.0;493.0
5.0;493.0
6.0;494.0
7.0;494.0
8.0;492.0
9.0;489.0
10.0;483.0
11.0;480.0
12.0;476.0
13.0;472.0
14.0;468.0
15.0;470.0
0.0;473.0
1.0;476.0
2.0;481.0
3.0;486.0
4.0;487.0
5.0;489.0
6.0;491.0
7.0;494.0
8.0;495.0
9.0;495.0
10.0;493.0
11.0;491.0
12.0;489.0
13.0;484.0
14.0;480.0
15.0;479.0
0.0;478.0
1.0;481.0
2.0;483.0
3.0;487.0
4.0;489.0
5.0;490.0
6.0;494.0
7.0;499.0
8.0;501.0
9.0;503.0
10.0;501.0
11.0;496.0
12.0;489.0
13.0;485.0
14.0;482.0
15.0;479.0
0.0;477.0
1.0;477.0
2.0;478.0
3.0;479.0
4.0;479.0
5.0;478.0
6.0;482.0
7.0;486.0
8.0;488.0
9.0;485.0
10.0;485.0
11.0;488.0
12.0;492.0
13.0;499.0
14.0;507.0
15.0;513.0
0.0;523.0
1.0;538.0
2.0;554.0
3.0;570.0
4.0;594.0
5.0;617.0
6.0;638.0
7.0;663.0
8.0;688.0
9.0;708.0
10.0;720.0
11.0;736.0
12.0;753.0
13.0;769.0
14.0;786.0
15.0;806.0
0.0;821.0
1.0;826.0
2.0;823.0
3.0;811.0
4.0;791.0
5.0;770.0
6.0;746.0
7.0;711.0
8.0;671.0
9.0;627.0
10.0;582.0
11.0;539.0
12.0;500.0
13.0;465.0
14.0;435.0
15.0;410.0
0.0;393.0
1.0;377.0
2.0;367.0
3.0;361.0
4.0;359.0
5.0;360.0
6.0;364.0
7.0;370.0
8.0;377.0
9.0;384.0
10.0;389.0
11.0;389.0
12.0;387.0
13.0;388.0
14.0;390.0
15.0;394.0
0.0;398.0
1.0;397.0
2.0;394.0
3.0;393.0
4.0;393.0
5.0;398.0
6.0;408.0
7.0;418.0
8.0;426.0
9.0;434.0
10.0;441.0
11.0;448.0
12.0;454.0
13.0;460.0
14.0;463.0
15.0;465.0
0.0;467.0
1.0;467.0
2.0;467.0
3.0;469.0
4.0;472.0
5.0;476.0
6.0;482.0
7.0;488.0
8.0;496.0
9.0;502.0
10.0;505.0
11.0;507.0
12.0;504.0
13.0;503.0
14.0;502.0
15.0;499.0
0.0;494.0
1.0;488.0
2.0;484.0
3.0;482.0
4.0;486.0
5.0;493.0
6.0;497.0
7.0;501.0
8.0;506.0
9.0;511.0
10.0;512.0
11.0;517.0
12.0;519.0
13.0;520.0
14.0;524.0
15.0;521.0
0.0;516.0
1.0;511.0
2.0;508.0
3.0;503.0
4.0;499.0
5.0;498.0
6.0;496.0
7.0;496.0
8.0;499.0
9.0;507.0
10.0;513.0
11.0;519.0
12.0;524.0
13.0;527.0
14.0;529.0
15.0;529.0
0.0;527.0
1.0;524.0
2.0;523.0
3.0;516.0
4.0;511.0
5.0;508.0
6.0;508.0
7.0;511.0
8.0;512.0
9.0;512.0
10.0;515.0
11.0;522.0
12.0;532.0
13.0;539.0
14.0;539.0
15.0;537.0
0.0;533.0
1.0;529.0
2.0;523.0
3.0;515.0
4.0;512.0
5.0;509.0
6.0;509.0
7.0;509.0
8.0;510.0
9.0;512.0
10.0;521.0
11.0;534.0
12.0;540.0
13.0;545.0
14.0;550.0
15.0;550.0
0.0;547.0
1.0;543.0
2.0;536.0
3.0;531.0
4.0;530.0
5.0;527.0
6.0;525.0
7.0;529.0
8.0;539.0
9.0;546.0
10.0;554.0
11.0;557.0
12.0;555.0
13.0;553.0
14.0;549.0
15.0;536.0
0.0;529.0
1.0;526.0
2.0;523.0
3.0;518.0
4.0;519.0
5.0;520.0
6.0;525.0
7.0;528.0
8.0;527.0
9.0;527.0
10.0;527.0
11.0;531.0
12.0;536.0
13.0;546.0
14.0;553.0
15.0;558.0
0.0;561.0
1.0;564.0
2.0;564.0
3.0;560.0
4.0;554.0
5.0;549.0
6.0;543.0
7.0;537.0
8.0;536.0
9.0;537.0
10.0;539.0
11.0;542.0
12.0;544.0
13.0;547.0
14.0;549.0
15.0;549.0
0.0;550.0
1.0;551.0
2.0;554.0
3.0;555.0
4.0;553.0
5.0;551.0
6.0;544.0
7.0;540.0
8.0;541.0
9.0;542.0
10.0;540.0
11.0;539.0
12.0;542.0
13.0;543.0
14.0;543.0
15.0;547.0
0.0;551.0
1.0;552.0
2.0;553.0
3.0;552.0
4.0;548.0
5.0;543.0
6.0;538.0
7.0;534.0
8.0;531.0
9.0;529.0
10.0;529.0
11.0;531.0
12.0;532.0
13.0;536.0
