0;515
1;516
2;522
3;521
4;512
5;502
6;491
7;487
8;486
9;490
10;493
11;487
12;485
13;486
14;484
15;480
0;477
1;483
2;496
3;508
4;509
5;499
6;502
7;505
8;499
9;499
10;508
11;515
12;526
13;545
14;565
15;577
0;579
1;576
2;559
3;545
4;538
5;531
6;518
7;506
8;497
9;486
10;479
11;476
12;473
13;469
14;459
15;452
0;460
1;478
2;494
3;495
4;488
5;481
6;477
7;468
8;455
9;445
10;443
11;436
12;428
13;438
14;458
15;474
0;498
1;513
2;511
3;509
4;506
5;499
6;504
7;514
8;522
9;527
10;531
11;530
12;526
13;522
14;507
15;489
0;480
1;468
2;448
3;435
4;423
5;409
6;403
7;411
8;422
9;429
10;440
11;454
12;463
13;465
14;463
15;455
0;447
1;435
2;432
3;428
4;420
5;419
6;422
7;432
8;443
9;458
10;478
11;500
12;515
13;520
14;518
15;524
0;531
1;531
2;524
3;511
4;492
5;475
6;463
7;451
8;446
9;449
10;448
11;441
12;440
13;444
14;445
15;450
0;469
1;507
2;568
3;625
4;657
5;663
6;654
7;636
8;622
9;614
10;617
11;621
12;622
13;623
14;623
15;620
0;617
1;615
2;620
3;616
4;600
5;575
6;542
7;507
8;465
9;421
10;383
11;358
12;339
13;317
14;302
15;301
0;300
1;288
2;283
3;290
4;296
5;301
6;316
7;336
8;352
9;363
10;359
11;354
12;353
13;364
14;385
15;401
0;411
1;419
2;424
3;425
4;428
5;435
6;446
7;458
8;470
9;478
10;486
11;492
12;496
13;499
14;509
15;523
0;534
1;542
2;547
3;549
4;547
5;534
6;518
7;514
8;519
9;519
10;526
11;529
12;532
13;534
14;536
15;541
0;538
1;534
2;527
3;518
4;511
5;507
6;503
7;504
8;504
9;509
10;512
11;524
12;544
13;563
14;570
15;584
0;610
1;617
2;604
3;590
4;578
5;561
6;549
7;546
8;554
9;560
10;562
11;558
12;556
13;558
14;560
15;568
0;578
1;581
2;579
3;581
4;589
5;597
6;600
7;595
8;582
9;568
10;554
11;543
12;537
13;536
14;537
15;543
0;549
1;561
2;578
3;600
4;622
5;638
6;641
7;628
8;603
9;583
10;568
11;564
12;564
13;559
14;557
15;556
0;552
1;555
2;560
3;570
4;575
5;578
6;576
7;572
8;563
9;555
10;558
11;569
12;567
13;558
14;560
15;568
0;568
1;560
2;556
3;552
4;552
5;556
6;566
7;576
8;576
9;573
10;568
11;564
12;559
13;555
14;551
15;548
0;547
1;549
2;550
3;557
4;558
5;547
6;541
7;540
8;538
9;535
10;528
11;534
12;536
13;535
14;543
15;561
0;570
1;571
2;569
3;556
4;538
5;527
6;516
7;506
8;489
9;476
10;470
11;467
12;467
13;472
14;473
15;473
0;476
1;478
2;482
3;487
4;489
5;495
6;502
7;510
8;515
9;512
10;503
11;495
12;490
13;486
14;486
15;492
0;495
1;499
2;503
3;500
4;489
5;480
6;463
7;451
8;451
9;450
10;457
11;456
12;454
13;456
14;452
15;459
0;464
1;463
2;459
3;456
4;457
5;467
6;472
7;463
8;452
9;445
10;435
11;430
12;436
13;439
14;448
15;456
0;458
1;465
2;477
3;483
4;479
5;472
6;465
7;459
8;452
9;436
10;427
11;418
12;408
13;403
14;402
15;399
0;400
1;401
2;412
3;422
4;425
5;420
6;412
7;406
8;407
9;414
10;430
11;445
12;456
13;479
14;513
15;532
0;532
1;517
2;503
3;490
4;485
5;490
6;495
7;496
8;491
9;482
10;470
11;459
12;450
13;447
14;452
15;459
0;470
1;478
2;482
3;491
4;497
5;500
6;501
7;495
8;489
9;481
10;463
11;449
12;445
13;436
14;432
15;419
0;408
1;406
2;413
3;424
4;440
5;463
6;481
7;497
8;518
9;541
10;560
11;578
12;589
13;596
14;598
15;592
0;573
1;558
2;540
3;518
4;497
5;486
6;480
7;480
8;483
9;487
10;497
11;507
12;512
13;512
14;512
15;500
0;480
1;461
2;444
3;440
4;435
5;416
6;390
7;363
8;350
9;350
10;357
11;366
12;368
13;380
14;391
15;400
0;414
1;426
2;435
3;435
4;430
5;418
6;399
7;376
8;359
9;350
10;355
11;383
12;424
13;468
14;502
15;515
0;527
1;536
2;545
3;555
4;553
5;548
6;547
7;548
8;547
9;541
10;534
11;527
12;528
13;532
14;526
15;516
0;505
1;499
2;502
3;503
4;505
5;507
6;516
7;527
8;528
9;526
10;526
11;527
12;527
13;531
14;535
15;535
0;537
1;532
2;512
3;491
4;485
5;483
6;492
7;513
8;538
9;552
10;552
11;547
12;540
13;536
14;534
15;541
0;553
1;570
2;582
3;581
4;572
5;562
6;553
7;537
8;529
9;533
10;543
11;545
12;544
13;532
14;518
15;504
0;483
1;462
2;442
3;430
4;426
5;429
6;446
7;467
8;492
9;529
10;572
11;604
12;630
13;635
14;631
15;627
0;620
1;608
2;595
3;582
4;574
5;570
6;564
7;562
8;574
9;586
10;590
11;594
12;592
13;582
14;568
15;563
0;561
1;553
2;551
3;550
4;547
5;533
6;515
7;510
8;531
9;573
10;606
11;621
12;614
13;606
14;609
15;602
0;585
1;572
2;555
3;543
4;542
5;552
6;562
7;564
8;558
9;556
10;553
11;547
12;549
13;575
14;603
15;613
0;599
1;576
2;543
3;519
4;507
5;498
6;499
7;507
8;507
9;511
10;519
11;523
12;524
13;517
14;513
15;505
0;494
1;486
2;490
3;495
4;501
5;510
6;533
7;559
8;585
9;606
10;621
11;621
12;605
13;593
14;578
15;558
0;530
1;510
2;506
3;508
4;511
5;508
6;505
7;498
8;481
9;471
10;468
11;470
12;466
13;460
14;461
15;463
0;470
1;484
2;504
3;522
4;524
5;518
6;508
7;489
8;459
9;412
10;356
11;307
12;279
13;275
14;278
15;296
0;324
1;368
2;435
3;498
4;544
5;572
6;587
7;589
8;587
9;585
10;578
11;567
12;557
13;542
14;539
15;544
0;544
1;540
2;543
3;550
4;561
5;564
6;555
7;542
8;522
9;501
10;499
11;502
12;504
13;499
14;500
15;504
0;501
1;495
2;484
3;470
4;462
5;463
6;460
7;455
8;449
9;442
10;439
11;449
12;466
13;478
14;476
15;467
0;465
1;469
2;464
3;459
4;475
5;502
6;515
7;509
8;481
9;447
10;405
11;372
12;361
13;384
14;443
15;489
0;504
1;518
2;542
3;553
4;550
5;551
6;555
7;535
8;495
9;440
10;369
11;306
12;255
13;227
14;230
15;251
0;285
1;343
2;421
3;510
4;594
5;664
6;723
7;772
8;801
9;804
10;786
11;753
12;710
13;665
14;624
15;586
0;561
1;541
2;518
3;497
4;478
5;448
6;420
7;408
8;392
9;374
10;361
11;360
12;375
13;395
14;417
15;437
0;441
1;438
2;430
3;420
4;414
5;406
6;400
7;393
8;404
9;435
10;478
11;523
12;550
13;544
14;515
15;490
0;469
1;449
2;434
3;424
4;426
5;430
6;432
7;431
8;421
9;405
10;410
11;418
12;416
13;410
14;425
15;441
0;455
1;467
2;475
3;463
4;451
5;446
6;432
7;440
8;454
9;457
10;447
11;434
12;415
13;399
14;415
15;459
0;503
1;531
2;544
3;569
4;602
5;638
6;670
7;683
8;679
9;672
10;670
11;657
12;636
13;615
14;602
15;588
0;578
1;570
2;574
3;583
4;588
5;584
6;580
7;579
8;571
9;556
10;552
11;547
12;540
13;546
14;558
15;551
0;526
1;512
2;501
3;463
4;413
5;381
6;381
7;415
8;466
9;504
10;544
11;587
12;629
13;646
14;635
15;618
0;604
1;584
2;556
3;521
4;502
5;515
6;530
7;548
8;578
9;602
10;618
11;628
12;627
13;616
14;601
15;588
0;588
1;585
2;585
3;580
4;585
5;606
6;630
7;639
8;615
9;593
10;577
11;561
12;551
13;537
14;525
15;539
0;573
1;596
2;605
3;597
4;585
5;573
6;564
7;549
8;543
9;543
10;552
11;573
12;598
13;612
14;612
15;588
0;559
1;529
2;502
3;495
4;497
5;476
6;440
7;427
8;432
9;454
10;483
11;513
12;533
13;540
14;541
15;541
0;541
1;534
2;536
3;546
4;565
5;575
6;569
7;557
8;537
9;523
10;516
11;512
12;513
13;518
14;516
15;505
0;496
1;490
2;480
3;463
4;454
5;448
6;430
7;424
8;428
9;440
10;463
11;502
12;545
13;570
14;578
15;575
0;569
1;564
2;568
3;566
4;561
5;562
6;572
7;583
8;587
9;580
10;576
11;571
12;566
13;557
14;547
15;552
0;554
1;551
2;549
3;545
4;535
5;522
6;516
7;515
8;519
9;519
10;512
11;510
12;513
13;522
14;533
15;529
0;527
1;524
2;507
3;487
4;470
5;451
6;423
7;390
8;353
9;325
10;318
11;332
12;363
13;419
14;462
15;509
0;564
1;619
2;658
3;681
4;684
5;667
6;639
7;608
8;571
9;537
10;500
11;466
12;441
13;424
14;413
15;407
0;406
1;401
2;399
3;398
4;400
5;416
6;433
7;448
8;460
9;469
10;487
11;510
12;534
13;536
14;514
15;485
0;462
1;436
2;411
3;389
4;369
5;356
6;359
7;367
8;378
9;368
10;353
11;346
12;367
13;403
14;434
15;457
0;474
1;509
2;551
3;594
4;645
5;685
6;713
7;718
8;710
9;698
10;691
11;686
12;677
13;667
14;661
15;664
0;669
1;679
2;680
3;668
4;650
5;634
6;626
7;614
8;598
9;589
10;576
11;555
12;540
13;528
14;514
15;502
0;481
1;457
2;443
3;420
4;393
5;367
6;350
7;347
8;342
9;364
10;361
11;376
12;392
13;423
14;453
15;461
0;462
1;463
2;466
3;472
4;477
5;482
6;490
7;492
8;475
9;482
10;493
11;515
12;524
13;527
14;526
15;536
0;541
1;523
2;491
3;451
4;429
5;421
6;420
7;435
8;450
9;465
10;467
11;476
12;492
13;503
14;500
15;488
0;482
1;483
2;489
3;493
4;489
5;488
6;488
7;489
8;499
9;504
10;500
11;494
12;490
13;495
14;500
15;511
0;523
1;536
2;548
3;553
4;555
5;568
6;564
7;561
8;566
9;561
10;548
11;529
12;497
13;467
14;441
15;428
0;414
1;392
2;380
3;391
4;414
5;438
6;473
7;522
8;551
9;562
10;562
11;546
12;534
13;548
14;580
15;623
0;655
1;660
2;659
3;664
4;668
5;671
6;664
7;647
8;624
9;592
10;567
11;548
12;529
13;532
14;545
15;562
0;568
1;572
2;567
3;556
4;546
5;540
6;544
7;551
8;557
9;550
10;535
11;521
12;512
13;510
14;517
15;536
0;550
1;556
2;561
3;570
4;581
5;593
6;599
7;598
8;598
9;595
10;584
11;571
12;557
13;543
14;530
15;520
0;527
1;550
2;565
3;573
4;578
5;584
6;603
7;625
8;644
9;656
10;655
11;643
12;621
13;592
14;558
15;528
0;516
1;517
2;522
3;525
4;530
5;535
6;530
7;522
8;519
9;515
10;501
11;483
12;471
13;479
14;491
15;506
0;515
1;519
2;527
3;529
4;517
5;521
6;528
7;520
8;519
9;519
10;521
11;520
12;519
13;519
14;513
15;501
0;488
1;482
2;476
3;464
4;445
5;423
6;409
7;403
8;402
9;411
10;417
11;419
12;419
13;428
14;445
15;455
0;466
1;487
2;514
3;531
4;535
5;538
6;539
7;531
8;528
9;529
10;524
11;520
12;519
13;516
14;507
15;495
0;483
1;474
2;471
3;460
4;427
5;404
6;399
7;408
8;420
9;441
10;477
11;496
12;504
13;510
14;519
15;527
0;535
1;540
2;548
3;552
4;548
5;537
6;530
7;526
8;517
9;509
10;506
11;513
12;522
13;525
14;526
15;521
0;519
1;518
2;515
3;508
4;504
5;502
6;504
7;501
8;491
9;473
10;462
11;453
12;444
13;444
14;461
15;481
0;493
1;501
2;495
3;478
4;466
5;461
6;453
7;459
8;477
9;500
10;527
11;531
12;537
13;547
14;544
15;545
0;543
1;527
2;519
3;522
4;520
5;514
6;510
7;507
8;500
9;495
10;498
11;503
12;510
13;524
14;532
15;537
0;542
1;546
2;562
3;593
4;617
5;620
6;610
7;596
8;589
9;591
10;595
11;591
12;581
13;570
14;555
15;534
0;508
1;483
2;452
3;420
4;395
5;384
6;386
7;396
8;382
9;350
10;320
11;292
12;267
13;251
14;258
15;275
0;287
1;302
2;328
3;362
4;402
5;448
6;480
7;498
8;511
9;524
10;520
11;505
12;497
13;492
14;484
15;470
0;467
1;479
2;497
3;529
4;543
5;560
6;582
7;577
8;562
9;529
10;484
11;463
12;451
13;444
14;457
15;471
0;472
1;476
2;470
3;467
4;489
5;503
6;508
7;498
8;479
9;462
10;435
11;410
12;404
13;412
14;422
15;432
0;454
1;482
2;511
3;539
4;573
5;604
6;631
7;642
8;636
9;621
10;608
11;599
12;586
13;573
14;559
15;553
0;557
1;567
2;576
3;591
4;612
5;614
6;597
7;565
8;529
9;511
10;509
11;510
12;500
13;483
14;473
15;455
0;444
1;461
2;476
3;494
4;507
5;521
6;545
7;568
8;595
9;633
10;657
11;660
12;645
13;620
14;600
15;595
0;588
1;578
2;569
3;571
4;580
5;587
6;595
7;599
8;614
9;625
10;636
11;637
12;623
13;608
14;600
15;590
0;576
1;570
2;564
3;566
4;578
5;591
6;594
7;598
8;601
9;605
10;604
11;595
12;582
13;579
14;580
15;575
0;560
1;543
2;543
3;555
4;571
5;573
6;571
7;574
8;571
9;555
10;540
11;534
12;523
13;508
14;493
15;479
0;468
1;461
2;455
3;445
4;439
5;442
6;465
7;503
8;538
9;567
10;596
11;611
12;623
13;633
14;644
15;675
0;699
1;688
2;644
3;600
4;560
5;532
6;498
7;462
8;434
9;419
10;414
11;410
12;414
13;421
14;422
15;424
0;432
1;448
2;480
3;502
4;516
5;530
6;540
7;539
8;542
9;541
10;527
11;513
12;513
13;505
14;501
15;504
0;508
1;506
2;502
3;505
4;515
5;519
6;523
7;524
8;527
9;523
10;498
11;465
12;448
13;424
14;411
15;408
0;421
1;440
2;461
3;486
4;503
5;513
6;521
7;529
8;533
9;539
10;542
11;535
12;525
13;513
14;507
15;502
0;501
1;498
2;497
3;496
4;500
5;505
6;508
7;514
8;515
9;509
10;499
11;521
12;531
13;543
14;551
15;537
0;494
1;453
2;426
3;414
4;407
5;414
6;427
7;445
8;474
9;510
10;533
11;542
12;540
13;533
14;523
15;527
0;536
1;533
2;522
3;507
4;486
5;465
6;452
7;448
8;444
9;443
10;450
11;473
12;503
13;523
14;531
15;534
0;544
1;547
2;542
3;538
4;534
5;535
6;536
7;534
8;532
9;524
10;507
11;503
12;500
13;483
14;454
15;430
0;425
1;448
2;473
3;505
4;536
5;554
6;560
7;562
8;564
9;561
10;563
11;580
12;611
13;648
14;682
15;703
0;702
1;677
2;645
3;623
4;620
5;627
6;630
7;627
8;625
9;615
10;598
11;583
12;554
13;522
14;493
15;460
0;432
1;410
2;402
3;384
4;358
5;327
6;311
7;317
8;336
9;344
10;338
11;317
12;298
13;300
14;323
15;348
0;368
1;374
2;375
3;371
4;367
5;364
6;366
7;376
8;395
9;425
10;460
11;487
12;510
13;526
14;540
15;557
0;569
1;567
2;556
3;538
4;521
5;512
6;514
7;526
8;536
9;535
10;525
11;517
12;514
13;513
14;514
15;515
0;528
1;543
2;541
3;551
4;558
5;551
6;544
7;543
8;546
9;550
10;545
11;536
12;530
13;532
14;538
15;542
0;535
1;531
2;544
3;571
4;596
5;612
6;612
7;601
8;589
9;574
10;553
11;541
12;531
13;536
14;551
15;557
0;560
1;557
2;545
3;535
4;537
5;547
6;562
7;560
8;553
9;548
10;537
11;527
12;520
13;512
14;497
15;492
0;489
1;487
2;493
3;524
4;574
5;617
6;646
7;651
8;645
9;645
10;645
11;636
12;615
13;597
14;590
15;592
0;597
1;604
2;599
3;589
4;580
5;577
6;576
7;576
8;579
9;582
10;580
11;580
12;583
13;592
14;604
15;612
0;615
1;612
2;606
3;600
4;585
5;566
6;546
7;528
8;525
9;529
10;528
11;523
12;515
13;501
14;486
15;478
0;481
1;498
2;516
3;531
4;533
5;527
6;522
7;519
8;512
9;504
10;503
11;494
12;481
13;463
14;448
15;435
0;435
1;455
2;487
3;519
4;547
5;564
6;574
7;582
8;584
9;576
10;559
11;536
12;517
13;512
14;512
15;503
0;482
1;456
2;443
3;448
4;460
5;465
6;454
7;438
8;427
9;425
10;441
11;468
12;495
13;521
14;545
15;572
0;594
1;611
2;619
3;609
4;575
5;525
6;488
7;475
8;471
9;478
10;487
11;490
12;487
13;483
14;482
15;486
0;485
1;485
2;489
3;499
4;510
5;523
6;540
7;543
8;527
9;513
10;515
11;529
12;527
13;510
14;489
15;470
0;458
1;452
2;449
3;443
4;441
5;443
6;444
7;447
8;444
9;451
10;463
11;470
12;462
13;444
14;425
15;412
0;390
1;369
2;353
3;344
4;342
5;355
6;384
7;415
8;443
9;472
10;489
11;492
12;488
13;480
14;462
15;438
0;423
1;416
2;416
3;413
4;415
5;430
6;446
7;474
8;507
9;521
10;517
11;510
12;505
13;502
14;498
15;491
0;483
1;476
2;475
3;484
4;498
5;505
6;512
7;520
8;519
9;523
10;526
11;527
12;524
13;517
14;508
15;494
0;484
1;480
2;470
3;458
4;446
5;432
6;418
7;405
8;400
9;407
10;413
11;406
12;397
13;396
14;390
15;380
0;380
1;393
2;417
3;454
4;505
5;553
6;585
7;605
8;620
9;634
10;638
11;637
12;631
13;618
14;603
15;580
0;563
1;568
2;581
3;584
4;572
5;555
6;526
7;490
8;457
9;428
10;401
11;377
12;355
13;343
14;330
15;315
0;299
1;285
2;273
3;273
4;288
5;303
6;315
7;324
8;325
9;335
10;352
11;366
12;386
13;402
14;412
15;421
0;423
1;420
2;412
3;403
4;400
5;399
6;401
7;406
8;418
9;433
10;448
11;464
12;480
13;490
14;497
15;499
0;507
1;521
2;519
3;511
4;505
5;510
6;524
7;530
8;531
9;527
10;532
11;548
12;572
13;591
14;605
15;613
0;608
1;590
2;557
3;514
4;484
5;477
6;484
7;491
8;505
9;521
10;533
11;532
12;529
13;531
14;528
15;523
0;514
1;511
2;515
3;516
4;515
5;517
6;521
7;522
8;522
9;522
10;524
11;532
12;536
13;538
14;537
15;536
0;539
1;540
2;537
3;534
4;533
5;531
6;528
7;526
8;531
9;541
10;548
11;557
12;564
13;576
14;582
15;588
0;592
1;592
2;588
3;579
4;572
5;570
6;573
7;570
8;577
9;595
10;610
11;622
12;630
13;631
14;625
15;613
0;604
1;598
2;592
3;583
4;572
5;556
6;544
7;543
8;551
9;563
10;571
11;577
12;580
13;593
14;612
15;628
0;639
1;631
2;615
3;604
4;599
5;596
6;590
7;576
8;563
9;558
10;556
11;557
12;557
13;552
14;544
15;535
0;530
1;534
2;541
3;547
4;547
5;529
6;518
7;522
8;528
9;528
10;520
11;512
12;507
13;512
14;518
15;516
0;512
1;505
2;497
3;491
4;488
5;483
6;484
7;487
8;492
9;496
10;501
11;505
12;507
13;510
14;514
15;523
0;530
1;534
2;533
3;530
4;527
5;520
6;515
7;516
8;518
9;516
10;505
11;489
12;475
13;471
14;473
15;473
0;483
1;489
2;498
3;509
4;514
5;512
6;503
7;491
8;482
9;478
10;483
11;488
12;499
13;518
14;534
15;547
0;553
1;560
2;571
3;577
4;569
5;547
6;511
7;496
8;485
9;463
10;444
11;443
12;449
13;454
14;460
15;467
0;475
1;476
2;465
3;454
4;454
5;460
6;465
7;472
8;479
9;483
10;487
11;491
12;487
13;484
14;488
15;489
0;488
1;482
2;471
3;461
4;459
5;459
6;459
7;453
8;449
9;452
10;454
11;456
12;464
13;475
14;492
15;505
0;509
1;508
2;508
3;504
4;503
5;508
6;507
7;499
8;497
9;504
10;509
11;504
12;490
13;471
14;459
15;453
0;464
1;472
2;459
3;465
4;474
5;483
6;491
7;497
8;499
9;503
10;504
11;496
12;488
13;487
14;483
15;471
0;456
1;455
2;462
3;473
4;483
5;492
6;501
7;510
8;516
9;522
10;535
11;546
12;544
13;534
14;532
15;543
0;558
1;575
2;596
3;613
4;629
5;637
6;635
7;625
8;614
9;610
10;602
11;586
12;565
13;540
14;515
15;492
0;465
1;433
2;409
3;392
4;371
5;347
6;327
7;313
8;302
9;293
10;286
11;276
12;272
13;279
14;291
15;305
0;323
1;339
2;356
3;384
4;411
5;437
6;452
7;452
8;453
9;455
10;450
11;433
12;433
13;458
14;473
15;479
0;484
1;493
2;505
3;521
4;536
5;545
6;553
7;565
8;574
9;558
10;537
11;524
12;518
13;523
14;532
15;544
0;553
1;553
2;546
3;540
4;538
5;537
6;538
7;544
8;551
9;558
10;566
11;569
12;569
13;569
14;565
15;556
0;543
1;532
2;536
3;546
4;549
5;543
6;540
7;533
8;539
9;563
10;576
11;574
12;564
13;552
14;550
15;553
0;554
1;556
2;559
3;558
4;550
5;541
6;543
7;543
8;535
9;536
10;545
11;556
12;558
13;553
14;545
15;547
0;555
1;560
2;567
3;571
4;566
5;560
6;563
7;567
8;571
9;572
10;566
11;557
12;553
13;558
14;566
15;579
0;592
1;599
2;600
3;598
4;590
5;576
6;570
7;574
8;579
9;582
10;593
11;596
12;599
13;603
14;604
15;605
0;607
1;601
2;591
3;577
4;570
5;566
6;558
7;554
8;550
9;544
10;545
11;556
12;568
13;572
14;570
15;569
0;566
1;568
2;572
3;574
4;573
5;569
6;562
7;554
8;561
9;573
10;572
11;567
12;557
13;540
14;528
15;527
0;536
1;544
2;547
3;545
4;542
5;543
6;541
7;533
8;519
9;505
10;496
11;494
12;494
13;495
14;502
15;504
0;506
1;510
2;519
3;528
4;529
5;523
6;520
7;519
8;519
9;519
10;521
11;518
12;510
13;508
14;507
15;506
0;504
1;503
2;503
3;503
4;506
5;500
6;494
7;497
8;494
9;500
10;508
11;494
12;476
13;474
14;474
15;471
0;463
1;460
2;466
3;473
4;481
5;486
6;486
7;481
8;483
9;481
10;472
11;464
12;470
13;492
14;525
15;560
0;580
1;588
2;585
3;573
4;553
5;534
6;522
7;511
8;502
9;487
10;474
11;461
12;455
13;452
14;449
15;451
0;457
1;468
2;481
3;481
4;474
5;475
6;475
7;472
8;465
9;453
10;439
11;436
12;446
13;460
14;466
15;462
0;461
1;459
2;462
3;468
4;473
5;472
6;475
7;480
8;480
9;476
10;477
11;479
12;479
13;480
14;483
15;488
0;494
1;488
2;479
3;470
4;452
5;438
6;430
7;431
8;452
9;478
10;497
11;501
12;496
13;492
14;495
15;499
0;500
1;493
2;488
3;479
4;464
5;445
6;432
7;428
8;427
9;426
10;424
11;430
12;443
13;451
14;454
15;463
0;470
1;474
2;481
3;491
4;501
5;510
6;518
7;524
8;537
9;551
10;562
11;570
12;577
13;582
14;589
15;596
0;600
1;598
2;589
3;583
4;575
5;568
6;561
7;558
8;554
9;540
10;526
11;508
12;485
13;460
14;434
15;398
0;370
1;356
2;348
3;339
4;326
5;316
6;311
7;321
8;350
9;384
10;400
11;408
12;415
13;423
14;431
15;438
0;440
1;443
2;451
3;454
4;449
5;448
6;444
7;432
8;429
9;435
10;440
11;441
12;440
13;446
14;457
15;468
0;475
1;482
2;486
3;485
4;491
5;494
6;494
7;499
8;504
9;509
10;512
11;514
12;519
13;526
14;531
15;528
0;523
1;518
2;516
3;512
4;516
5;530
6;541
7;544
8;547
9;543
10;543
11;543
12;539
13;548
14;557
15;559
0;549
1;531
2;520
3;524
4;526
5;535
6;556
7;579
8;593
9;580
10;557
11;544
12;545
13;547
14;550
15;552
0;543
1;533
2;524
3;521
4;525
5;529
6;532
7;534
8;536
9;541
10;543
11;543
12;550
13;557
14;559
15;560
0;564
1;565
2;563
3;569
4;575
5;579
6;585
7;599
8;604
9;595
10;584
11;575
12;568
13;563
14;553
15;547
0;541
1;535
2;532
3;527
4;529
5;539
6;550
7;567
8;583
9;599
10;614
11;622
12;616
13;599
14;583
15;575
0;561
1;557
2;561
3;570
4;581
5;577
6;567
7;558
8;561
9;564
10;567
11;568
12;567
13;567
14;570
15;576
0;578
1;572
2;561
3;556
4;556
5;551
6;550
7;542
8;528
9;521
10;521
11;524
12;523
13;529
14;532
15;528
0;526
1;521
2;513
3;499
4;487
5;489
6;506
7;510
8;508
9;505
10;505
11;512
12;519
13;524
14;519
15;519
0;518
1;513
2;519
3;530
4;527
5;523
6;522
7;522
8;517
9;521
10;527
11;529
12;528
13;530
14;524
15;520
0;521
1;521
2;518
3;509
4;493
5;479
6;470
7;467
8;466
9;478
10;501
11;520
12;527
13;520
14;503
15;489
0;478
1;468
2;458
3;465
4;478
5;485
6;486
7;490
8;494
9;488
10;488
11;484
12;477
13;472
14;465
15;463
0;469
1;478
2;491
3;500
4;497
5;498
6;495
7;488
8;492
9;504
10;507
11;507
12;508
13;508
14;495
15;480
0;471
1;468
2;469
3;470
4;476
5;472
6;470
7;470
8;467
9;464
10;470
11;475
12;481
13;480
14;472
15;468
0;468
1;463
2;457
3;447
4;436
5;435
6;435
7;443
8;446
9;441
10;429
11;419
12;418
13;422
14;437
15;457
0;466
1;463
2;462
3;463
4;463
5;460
6;461
7;465
8;462
9;460
10;471
11;482
12;483
13;483
14;486
15;495
0;508
1;512
2;514
3;516
4;504
5;490
6;484
7;480
8;476
9;483
10;498
11;496
12;494
13;495
14;496
15;499
0;500
1;496
2;498
3;499
4;483
5;482
6;503
7;520
8;527
9;537
10;551
11;562
12;576
13;587
14;595
15;592
0;585
1;581
2;579
3;574
4;560
5;545
6;528
7;518
8;504
9;493
10;485
11;467
12;440
13;415
14;395
15;380
0;375
1;377
2;387
3;401
4;411
5;406
6;394
7;386
8;387
9;387
10;383
11;385
12;395
13;413
14;427
15;435
0;439
1;444
2;451
3;456
4;457
5;461
6;471
7;475
8;469
9;464
10;459
11;464
12;480
13;486
14;493
15;505
0;520
1;530
2;534
3;536
4;535
5;532
6;529
7;524
8;516
9;511
10;499
11;485
12;476
13;490
14;514
15;523
0;517
1;509
2;508
3;516
4;529
5;534
6;536
7;531
8;528
9;542
10;557
11;556
12;556
13;550
14;541
15;533
0;528
1;532
2;551
3;567
4;573
5;578
6;583
7;579
8;578
9;576
10;573
11;576
12;576
13;572
14;576
15;582
0;579
1;567
2;552
3;543
4;536
5;528
6;527
7;528
8;535
9;543
10;549
11;559
12;570
13;574
14;573
15;574
0;575
1;569
2;557
3;543
4;539
5;540
6;556
7;576
8;586
9;589
10;584
11;579
12;575
13;558
14;547
15;536
0;525
1;524
2;532
3;548
4;565
5;581
6;595
7;603
8;606
9;604
10;600
11;595
12;588
13;579
14;567
15;556
0;545
1;540
2;532
3;536
4;548
5;556
6;555
7;558
8;565
9;578
10;585
11;588
12;588
13;582
14;569
15;547
0;538
1;527
2;519
3;526
4;535
5;531
6;523
7;514
8;516
9;515
10;508
11;504
12;504
13;510
14;518
15;513
0;508
1;509
2;518
3;526
4;536
5;539
6;536
7;532
8;523
9;511
10;513
11;524
12;528
13;520
14;509
15;510
0;513
1;518
2;521
3;523
4;526
5;525
6;518
7;513
8;512
9;513
10;512
11;509
12;505
13;499
14;504
15;518
0;527
1;530
2;529
3;524
4;526
5;534
6;543
7;551
8;552
9;548
10;539
11;531
12;535
13;544
14;544
15;536
0;524
1;510
2;498
3;491
4;484
5;478
6;470
7;466
8;461
9;460
10;475
11;484
12;487
13;495
14;504
15;515
0;519
1;511
2;506
3;498
4;489
5;486
6;483
7;481
8;481
9;487
10;494
11;500
12;504
13;509
14;514
15;520
0;526
1;521
2;516
3;515
4;516
5;514
6;512
7;509
8;504
9;502
10;508
11;517
12;522
13;524
14;516
15;506
0;503
1;502
2;496
3;492
4;496
5;496
6;494
7;492
8;488
9;486
10;488
11;493
12;498
13;493
14;477
15;457
0;435
1;419
2;412
3;423
4;441
5;460
6;467
7;476
8;487
9;499
10;516
11;538
12;541
13;545
14;560
15;576
0;588
1;588
2;573
3;556
4;546
5;536
6;527
7;519
8;507
9;496
10;495
11;489
12;490
13;497
14;499
15;506
0;512
1;523
2;535
3;542
4;551
5;562
6;572
7;577
8;577
9;571
10;569
11;574
12;581
13;583
14;573
15;562
0;562
1;561
2;564
3;570
4;569
5;558
6;548
7;545
8;532
9;507
10;478
11;456
12;438
13;418
14;401
15;390
0;389
1;396
2;398
3;393
4;397
5;405
6;412
7;422
8;435
9;445
10;457
11;464
12;466
13;465
14;470
15;470
0;470
1;472
2;474
3;476
4;483
5;494
6;502
7;502
8;499
9;494
10;489
11;488
12;489
13;489
14;490
15;493
0;503
1;512
2;515
3;512
4;516
5;521
6;523
7;523
8;524
9;521
10;518
11;516
12;515
13;517
14;522
15;524
0;513
1;506
2;511
3;534
4;552
5;558
6;562
7;560
8;555
9;550
10;556
11;564
12;560
13;559
14;559
15;551
0;537
1;525
2;514
3;505
4;504
5;508
6;511
7;513
8;516
9;523
10;529
11;526
12;524
13;524
14;527
15;535
0;536
1;531
2;521
3;514
4;515
5;522
6;534
7;542
8;543
9;548
10;561
11;570
12;576
13;583
14;593
15;592
0;580
1;567
2;560
3;557
4;557
5;552
6;551
7;557
8;565
9;569
10;572
11;574
12;580
13;586
14;588
15;590
0;596
1;604
2;610
3;608
4;596
5;579
6;567
7;560
8;556
9;548
10;537
11;524
12;515
13;507
14;507
15;518
0;529
1;539
2;551
3;549
4;541
5;533
6;534
7;541
8;547
9;554
10;569
11;580
12;582
13;582
14;583
15;582
0;576
1;573
2;564
3;555
4;545
5;532
6;514
7;498
8;491
9;501
10;518
11;525
12;536
13;536
14;533
15;533
0;534
1;531
2;527
3;529
4;531
5;525
6;516
7;505
8;496
9;495
10;497
11;501
12;496
13;483
14;479
15;478
0;490
1;506
2;526
3;546
4;565
5;584
6;605
7;616
8;610
9;592
10;566
11;546
12;532
13;518
14;507
15;500
0;498
1;504
2;510
3;515
4;522
5;531
6;543
7;553
8;552
9;548
10;537
11;521
12;507
13;495
14;494
15;493
0;492
1;487
2;482
3;477
4;472
5;472
6;476
7;480
8;483
9;491
10;502
11;512
12;514
13;506
14;496
15;494
0;497
1;502
2;504
3;499
4;488
5;472
6;461
7;458
8;459
9;460
10;466
11;475
12;482
13;488
14;500
15;515
0;515
1;511
2;512
3;511
4;511
5;511
6;510
7;507
8;501
9;495
10;492
11;492
12;486
13;484
14;486
15;491
0;492
1;482
2;479
3;484
4;491
5;496
6;502
7;506
8;510
9;512
10;514
11;518
12;520
13;519
14;513
15;508
0;508
1;508
2;508
3;503
4;497
5;494
6;495
7;496
8;498
9;501
10;501
11;503
12;507
13;510
14;506
15;503
0;506
1;510
2;511
3;512
4;512
5;507
6;503
7;505
8;512
9;519
10;534
11;548
12;555
13;561
14;567
15;570
0;570
1;564
2;564
3;569
4;568
5;563
6;565
7;572
8;578
9;576
10;567
11;568
12;579
13;584
14;581
15;573
0;560
1;543
2;522
3;501
4;481
5;468
6;457
7;442
8;423
9;397
10;372
11;363
12;368
13;381
14;393
15;401
0;406
1;411
2;422
3;432
4;437
5;448
6;454
7;450
8;446
9;443
10;434
11;438
12;450
13;466
14;480
15;482
0;487
1;491
2;482
3;470
4;458
5;448
6;452
7;474
8;497
9;516
10;519
11;514
12;507
13;508
14;521
15;533
0;540
1;547
2;553
3;554
4;555
5;552
6;543
7;529
8;521
9;523
10;528
11;533
12;534
13;533
14;533
15;539
0;543
1;541
2;532
3;527
4;526
5;530
6;539
7;547
8;548
9;540
10;530
11;529
12;540
13;558
14;576
15;583
0;576
1;571
2;568
3;566
4;571
5;579
6;578
7;575
8;575
9;581
10;579
11;569
12;562
13;553
14;534
15;515
0;501
1;498
2;506
3;510
4;516
5;521
6;524
7;536
8;551
9;560
10;559
11;556
12;558
13;560
14;563
15;563
0;559
1;553
2;551
3;549
4;541
5;541
6;549
7;558
8;566
9;576
10;579
11;574
12;567
13;558
14;556
15;561
0;566
1;568
2;577
3;590
4;601
5;608
6;610
7;607
8;597
9;591
10;594
11;602
12;607
13;608
14;600
15;590
0;583
1;582
2;575
3;564
4;560
5;556
6;553
7;557
8;561
9;563
10;560
11;556
12;554
13;553
14;557
15;555
0;546
1;528
2;508
3;489
4;478
5;469
6;463
7;466
8;471
9;479
10;490
11;500
12;506
13;510
14;508
15;506
0;500
1;496
2;498
3;501
4;505
5;516
6;526
7;541
8;556
9;563
10;570
11;575
12;582
13;585
14;580
15;579
0;564
1;545
2;523
3;511
4;505
5;501
6;498
7;501
8;508
9;508
10;498
11;487
12;484
13;489
14;501
15;519
0;534
1;530
2;508
3;494
4;491
5;494
6;499
7;497
8;487
9;493
10;518
11;535
12;531
13;528
14;533
15;539
0;537
1;533
2;531
3;524
4;515
5;502
6;484
7;476
8;478
9;481
10;483
11;484
12;485
13;486
14;499
15;516
0;530
1;535
2;530
3;519
4;515
5;516
6;508
7;497
8;489
9;486
10;487
11;491
12;494
13;494
14;493
15;494
0;497
1;501
2;498
3;493
4;487
5;481
6;486
7;496
8;497
9;494
10;490
11;485
12;479
13;472
14;462
15;455
0;448
1;442
2;434
3;428
4;442
5;480
6;513
7;526
8;526
9;527
10;528
11;527
12;526
13;516
14;504
15;493
0;483
1;478
2;476
3;475
4;472
5;468
6;464
7;459
8;467
9;480
10;491
11;497
12;497
13;491
14;480
15;470
0;462
1;450
2;446
3;451
4;461
5;471
6;481
7;494
8;509
9;517
10;527
11;542
12;557
13;574
14;584
15;590
0;589
1;587
2;588
3;593
4;603
5;618
6;623
7;615
8;605
9;603
10;605
11;591
12;571
13;554
14;537
15;515
0;491
1;472
2;454
3;441
4;428
5;396
6;356
7;327
8;312
9;313
10;316
11;317
12;323
13;341
14;369
15;395
0;406
1;400
2;396
3;395
4;402
5;416
6;432
7;438
8;442
9;451
10;463
11;471
12;465
13;459
14;457
15;457
0;459
1;471
2;493
3;517
4;538
5;545
6;542
7;538
8;532
9;525
10;521
11;524
12;523
13;516
14;510
15;499
0;490
1;489
2;500
3;513
4;528
5;537
6;540
7;543
8;544
9;551
10;568
11;577
12;584
13;590
14;588
15;584
0;580
1;579
2;572
3;556
4;546
5;545
6;538
7;530
8;522
9;521
10;522
11;526
12;528
13;529
14;533
15;538
0;548
1;551
2;549
3;546
4;549
5;551
6;551
7;553
8;554
9;547
10;541
11;539
12;550
13;567
14;581
15;589
0;601
1;614
2;622
3;629
4;637
5;644
6;642
7;629
8;606
9;584
10;566
11;559
12;551
13;537
14;518
15;499
0;486
1;485
2;489
3;492
4;499
5;511
6;523
7;536
8;554
9;573
10;583
11;588
12;589
13;588
14;586
15;579
0;573
1;576
2;585
3;593
4;600
5;596
6;593
7;601
8;614
9;620
10;622
11;618
12;616
13;611
14;602
15;585
0;568
1;564
2;566
3;569
4;570
5;566
6;560
7;554
8;547
9;540
10;534
11;531
12;518
13;501
14;486
15;478
0;481
1;488
2;491
3;496
4;509
5;524
6;528
7;524
8;515
9;509
10;508
11;516
12;543
13;560
14;564
15;564
0;561
1;560
2;551
3;542
4;536
5;528
6;521
7;503
8;491
9;480
10;481
11;489
12;500
13;504
14;497
15;491
0;492
1;498
2;502
3;501
4;501
5;500
6;497
7;489
8;486
9;488
10;488
11;484
12;474
13;471
14;476
15;483
0;491
1;498
2;501
3;505
4;518
5;527
6;529
7;519
8;509
9;505
10;507
11;513
12;523
13;531
14;530
15;524
0;515
1;511
2;511
3;509
4;503
5;492
6;477
7;470
8;473
9;477
10;477
11;481
12;487
13;489
14;494
15;511
0;523
1;515
2;503
3;497
4;494
5;489
6;485
7;485
8;482
9;475
10;468
11;459
12;446
13;446
14;451
15;452
0;457
1;469
2;482
3;488
4;492
5;494
6;499
7;499
8;491
9;480
10;466
11;454
12;448
13;443
14;441
15;444
0;447
1;448
2;443
3;438
4;442
5;460
6;477
7;487
8;492
9;499
10;503
11;502
12;498
13;496
14;492
15;495
0;499
1;498
2;494
3;488
4;483
5;476
6;468
7;470
8;483
9;497
10;506
11;508
12;500
13;496
14;497
15;495
0;488
1;480
2;477
3;485
4;491
5;490
6;489
7;489
8;498
9;505
10;515
11;525
12;532
13;549
14;574
15;595
0;609
1;616
2;611
3;597
4;586
5;587
6;588
7;576
8;559
9;557
10;554
11;538
12;512
13;482
14;444
15;409
0;377
1;348
2;326
3;317
4;317
5;322
6;321
7;322
8;329
9;340
10;346
11;348
12;359
13;373
14;384
15;390
0;386
1;385
2;402
3;431
4;451
5;459
6;464
7;475
8;488
9;495
10;494
11;492
12;490
13;491
14;489
15;495
0;504
1;508
2;512
3;518
4;522
5;521
6;519
7;515
8;502
9;492
10;489
11;490
12;506
13;530
14;557
15;573
0;579
1;579
2;574
3;563
4;550
5;535
6;527
7;521
8;521
9;515
10;512
11;513
12;514
13;518
14;523
15;529
0;539
1;550
2;554
3;551
4;547
5;546
6;547
7;550
8;556
9;559
10;559
11;560
12;553
13;542
14;532
15;524
0;518
1;520
2;520
3;512
4;506
5;501
6;501
7;502
8;514
9;545
10;577
11;591
12;597
13;601
14;599
15;593
0;591
1;604
2;616
3;624
4;622
5;619
6;614
7;613
8;611
9;605
10;597
11;595
12;593
13;589
14;584
15;578
0;583
1;591
2;595
3;601
4;609
5;615
6;618
7;618
8;618
9;620
10;624
11;620
12;617
13;619
14;618
15;617
0;610
1;604
2;601
3;598
4;592
5;580
6;570
7;562
8;559
9;556
10;553
11;551
12;548
13;548
14;550
15;555
0;551
1;541
2;531
3;530
4;534
5;541
6;556
7;563
8;560
9;554
10;551
11;546
12;542
13;542
14;541
15;539
0;532
1;527
2;523
3;520
4;520
5;521
6;517
7;513
8;507
9;504
10;501
11;504
12;500
13;500
14;505
15;510
0;517
1;523
2;523
3;525
4;519
5;507
6;496
7;490
8;487
9;492
10;491
11;486
12;481
13;477
14;474
15;473
0;475
1;470
2;464
3;468
4;473
5;475
6;476
7;480
8;487
9;494
10;496
11;504
12;521
13;537
14;535
15;532
0;535
1;540
2;541
3;537
4;534
5;530
6;521
7;518
8;508
9;497
10;499
11;509
12;516
13;520
14;517
15;517
0;522
1;518
2;515
3;514
4;514
5;512
6;506
7;498
8;490
9;488
10;487
11;480
12;472
13;466
14;459
15;457
0;457
1;457
2;458
3;458
4;457
5;457
6;459
7;460
8;459
9;461
10;470
11;476
12;476
13;471
14;467
15;463
0;460
1;455
2;451
3;450
4;452
5;453
6;452
7;450
8;451
9;456
10;464
11;471
12;475
13;476
14;470
15;467
0;464
1;464
2;457
3;454
4;455
5;460
6;460
7;455
8;449
9;444
10;449
11;469
12;499
13;517
14;520
15;544
0;568
1;575
2;567
3;544
4;521
5;505
6;498
7;494
8;493
9;488
10;484
11;480
12;474
13;462
14;451
15;447
0;452
1;461
2;475
3;487
4;494
5;509
6;531
7;557
8;578
9;596
10;608
11;612
12;610
13;614
14;622
15;627
0;625
1;619
2;614
3;609
4;597
5;581
6;567
7;566
8;561
9;547
10;524
11;492
12;458
13;425
14;392
15;359
0;335
1;321
2;312
3;306
4;305
5;311
6;327
7;347
8;359
9;370
10;387
11;398
12;394
13;387
14;384
15;382
0;395
1;423
2;441
3;452
4;465
5;475
6;479
7;484
8;496
9;508
10;513
11;504
12;498
13;492
14;490
15;487
0;484
1;480
2;472
3;467
4;472
5;478
6;484
7;485
8;489
9;489
10;494
11;509
12;529
13;539
14;541
15;545
0;548
1;551
2;545
3;541
4;543
5;537
6;529
7;524
8;520
9;514
10;519
11;524
12;515
13;502
14;496
15;500
0;503
1;505
2;523
3;550
4;565
5;577
6;591
7;604
8;605
9;602
10;601
11;601
12;602
13;597
14;590
15;578
0;569
1;569
2;564
3;552
4;540
5;530
6;522
7;510
8;505
9;500
10;504
11;519
12;539
13;561
14;577
15;584
0;589
1;592
2;600
3;595
4;581
5;567
6;543
7;531
8;540
9;550
10;559
11;558
12;561
13;565
14;573
15;582
0;586
1;589
2;587
3;581
4;570
5;570
6;569
7;565
8;565
9;571
10;573
11;573
12;572
13;570
14;573
15;571
0;563
1;560
2;561
3;572
4;578
5;579
6;575
7;575
8;576
9;569
10;564
11;559
12;554
13;550
14;540
15;536
0;537
1;537
2;540
3;544
4;537
5;534
6;540
7;547
8;544
9;538
10;531
11;535
12;543
13;546
14;548
15;545
0;540
1;534
2;521
3;508
4;500
5;498
6;499
7;494
8;495
9;494
10;486
11;475
12;474
13;481
14;497
15;502
0;502
1;500
2;500
3;497
4;495
5;498
6;499
7;497
8;493
9;486
10;483
11;484
12;482
13;483
14;477
15;470
0;460
1;456
2;469
3;490
4;504
5;515
6;528
7;538
8;547
9;549
10;543
11;537
12;524
13;512
14;505
15;495
0;488
1;483
2;472
3;462
4;463
5;470
6;478
7;482
8;483
9;484
10;497
11;513
12;510
13;511
14;514
15;508
0;499
1;487
2;477
3;470
4;475
5;484
6;495
7;508
8;515
9;519
10;518
11;510
12;496
13;484
14;478
15;464
0;450
1;443
2;439
3;441
4;444
5;444
6;447
7;452
8;457
9;459
10;460
11;459
12;458
13;457
14;458
15;458
0;459
1;462
2;466
3;470
4;471
5;475
6;482
7;486
8;484
9;486
10;489
11;483
12;471
13;462
14;463
15;473
0;480
1;481
2;486
3;495
4;511
5;529
6;545
7;555
8;556
9;550
10;536
11;520
12;510
13;497
14;486
15;475
0;470
1;483
2;491
3;483
4;474
5;461
6;454
7;454
8;459
9;460
10;459
11;461
12;468
13;468
14;467
15;467
0;466
1;475
2;487
3;500
4;510
5;519
6;523
7;524
8;528
9;542
10;560
11;569
12;571
13;567
14;563
15;563
0;554
1;543
2;539
3;538
4;546
5;544
6;536
7;524
8;508
9;491
10;480
11;473
12;456
13;434
14;416
15;412
0;413
1;404
2;391
3;380
4;380
5;382
6;391
7;402
8;419
9;435
10;443
11;440
12;434
13;425
14;419
15;423
0;436
1;447
2;445
3;442
4;444
5;449
6;463
7;480
8;489
9;490
10;488
11;499
12;505
13;504
14;498
15;495
0;491
1;494
2;499
3;504
4;509
5;520
6;530
7;530
8;528
9;526
10;524
11;523
12;521
13;521
14;518
15;512
0;508
1;504
2;501
3;500
4;495
5;494
6;499
7;499
8;498
9;510
10;522
11;528
12;535
13;539
14;542
15;542
0;536
1;529
2;520
3;515
4;515
5;521
6;532
7;543
8;551
9;556
10;563
11;568
12;562
13;554
14;549
15;543
0;533
1;522
2;524
3;538
4;564
5;583
6;592
7;591
8;587
9;587
10;592
11;588
12;580
13;579
14;577
15;573
0;567
1;560
2;556
3;558
4;562
5;557
6;552
7;547
8;549
9;547
10;541
11;539
12;545
13;555
14;566
15;571
0;569
1;565
2;563
3;568
4;573
5;573
6;572
7;576
8;584
9;590
10;591
11;588
12;581
13;569
14;558
15;549
0;542
1;536
2;536
3;540
4;538
5;534
6;532
7;537
8;542
9;545
10;542
11;535
12;530
13;532
14;540
15;549
0;556
1;553
2;551
3;551
4;545
5;539
6;541
7;542
8;534
9;524
10;518
11;519
12;521
13;526
14;531
15;536
0;537
1;530
2;513
3;504
4;516
5;529
6;532
7;537
8;537
9;533
10;531
11;532
12;526
13;520
14;510
15;500
0;502
1;503
2;498
3;509
4;527
5;531
6;524
7;513
8;505
9;508
10;518
11;516
12;511
13;507
14;507
15;508
0;510
1;510
2;513
3;515
4;508
5;497
6;495
7;496
8;503
9;504
10;498
11;489
12;481
13;469
14;462
15;462
0;477
1;497
2;514
3;527
4;535
5;533
6;526
7;524
8;528
9;526
10;520
11;513
12;507
13;496
14;484
15;473
0;467
1;467
2;468
3;467
4;460
5;452
6;462
7;482
8;491
9;488
10;483
11;484
12;491
13;498
14;496
15;489
0;487
1;487
2;492
3;498
4;499
5;497
6;492
7;495
8;498
9;496
10;495
11;493
12;489
13;485
14;485
15;488
0;488
1;484
2;480
3;470
4;458
5;454
6;447
7;446
8;457
9;464
10;462
11;467
12;480
13;488
14;496
15;504
0;510
1;510
2;504
3;503
4;502
5;501
6;498
7;498
8;492
9;482
10;476
11;469
12;468
13;477
14;484
15;478
0;472
1;477
2;491
3;494
4;488
5;490
6;487
7;489
8;493
9;500
10;507
11;505
12;510
13;508
14;504
15;503
0;501
1;502
2;510
3;519
4;528
5;535
6;540
7;548
8;561
9;569
10;578
11;588
12;592
13;586
14;568
15;550
0;539
1;532
2;534
3;536
4;530
5;519
6;510
7;501
8;494
9;479
10;459
11;438
12;415
13;394
14;371
15;351
0;339
1;336
2;339
3;351
4;364
5;374
6;383
7;384
8;373
9;360
10;366
11;376
12;387
13;399
14;421
15;445
0;463
1;478
2;489
3;496
4;501
5;508
6;515
7;522
8;529
9;529
10;524
11;518
12;514
13;519
14;519
15;515
0;515
1;512
2;511
3;514
4;516
5;517
6;519
7;527
8;531
9;536
10;537
11;534
12;532
13;536
14;532
15;523
0;519
1;525
2;533
3;537
4;539
5;545
6;547
7;542
8;537
9;532
10;528
11;525
12;525
13;530
14;531
15;532
0;532
1;531
2;532
3;541
4;548
5;547
6;544
7;541
8;540
9;537
10;533
11;522
12;513
13;512
14;520
15;530
0;540
1;552
2;561
3;568
4;566
5;561
6;551
7;535
8;523
9;524
10;532
11;543
12;547
13;547
14;550
15;558
0;565
1;568
2;571
3;569
4;569
5;572
6;577
7;580
8;585
9;591
10;595
11;595
12;595
13;600
14;606
15;611
0;611
1;605
2;599
3;597
4;596
5;591
6;586
7;577
8;568
9;566
10;564
11;557
12;544
13;537
14;543
15;546
0;551
1;551
2;549
3;544
4;540
5;529
6;524
7;534
8;549
9;559
10;563
11;561
12;556
13;550
14;547
15;548
0;554
1;553
2;551
3;572
4;594
5;598
6;589
7;580
8;568
9;556
10;549
11;541
12;535
13;533
14;533
15;533
0;535
1;539
2;543
3;540
4;534
5;526
6;519
7;519
8;518
9;518
10;516
11;518
12;524
13;528
14;523
15;511
0;501
1;503
2;518
3;522
4;514
5;507
6;502
7;496
8;492
9;489
10;483
11;479
12;482
13;488
14;496
15;499
0;497
1;497
2;504
3;504
4;492
5;479
6;468
7;471
8;478
9;478
10;472
11;459
12;452
13;459
14;483
15;512
0;523
1;526
2;535
3;536
4;534
5;536
6;543
7;549
8;547
9;538
10;530
11;528
12;523
13;518
14;513
15;515
0;515
1;510
2;505
3;504
4;501
5;500
6;501
7;499
8;496
9;495
10;497
11;495
12;493
13;494
14;491
15;488
0;487
1;485
2;478
3;471
4;467
5;467
6;467
7;468
8;471
9;477
10;487
11;493
12;496
13;490
14;482
15;476
0;474
1;471
2;465
3;457
4;454
5;451
6;448
7;455
8;466
9;468
10;460
11;462
12;468
13;476
14;484
15;484
0;484
1;476
2;468
3;466
4;476
5;486
6;484
7;487
8;491
9;489
10;487
11;488
12;494
13;497
14;497
15;495
0;496
1;498
2;487
3;475
4;467
5;464
6;470
7;477
8;487
9;517
10;536
11;528
12;510
13;502
14;495
15;488
0;482
1;486
2;496
3;503
4;517
5;535
6;545
7;550
8;556
9;567
10;579
11;585
12;590
13;595
14;592
15;588
0;582
1;583
2;576
3;560
4;542
5;526
6;506
7;484
8;452
9;414
10;376
11;345
12;326
13;319
14;316
15;314
0;312
1;311
2;318
3;327
4;339
5;352
6;362
7;373
8;386
9;396
10;404
11;416
12;427
13;438
14;443
15;440
0;443
1;447
2;450
3;451
4;452
5;455
6;463
7;467
8;477
9;488
10;492
11;490
12;492
13;509
14;542
15;565
0;570
1;568
2;556
3;548
4;542
5;531
6;518
7;510
8;503
9;497
10;496
11;500
12;505
13;506
14;507
15;511
0;516
1;521
2;527
3;538
4;547
5;551
6;548
7;538
8;531
9;526
10;519
11;512
12;512
13;515
14;516
15;522
0;531
1;538
2;540
3;546
4;554
5;555
6;552
7;550
8;547
9;544
10;544
11;550
12;550
13;545
14;547
15;551
0;549
1;552
2;557
3;558
4;556
5;550
6;551
7;562
8;567
9;561
10;553
11;553
12;556
13;562
14;566
15;566
0;560
1;561
2;575
3;587
4;595
5;598
6;597
7;596
8;595
9;585
10;577
11;572
12;571
13;564
14;563
15;580
0;595
1;613
2;628
3;636
4;633
5;622
6;604
7;586
8;572
9;560
10;551
11;547
12;544
13;540
14;538
15;548
0;560
1;566
2;568
3;572
4;575
5;577
6;572
7;564
8;557
9;557
10;565
11;569
12;567
13;564
14;559
15;545
0;530
1;523
2;528
3;534
4;534
5;530
6;528
7;529
8;527
9;526
10;522
11;512
12;502
13;498
14;506
15;511
0;513
1;513
2;511
3;504
4;500
5;497
6;497
7;498
8;501
9;500
10;502
11;508
12;516
13;517
14;514
15;512
0;508
1;505
2;505
3;499
4;491
5;489
6;496
7;500
8;503
9;509
10;516
11;521
12;517
13;510
14;502
15;492
0;481
1;479
2;483
3;489
4;493
5;496
6;499
7;502
8;503
9;499
10;490
11;487
12;486
13;485
14;483
15;485
0;487
1;484
2;482
3;479
4;483
5;491
6;496
7;499
8;506
9;509
10;507
11;499
12;492
13;486
14;483
15;480
0;472
1;469
2;471
3;470
4;469
5;468
6;472
7;478
8;486
9;489
10;487
11;476
12;466
13;463
14;463
15;466
0;467
1;468
2;468
3;467
4;462
5;459
6;458
7;459
8;463
9;470
10;472
11;468
12;464
13;467
14;467
15;463
0;457
1;453
2;448
3;447
4;447
5;451
6;466
7;486
8;500
9;508
10;506
11;502
12;496
13;485
14;475
15;469
0;466
1;470
2;472
3;465
4;450
5;435
6;432
7;441
8;449
9;449
10;445
11;443
12;454
13;478
14;487
15;484
0;475
1;470
2;455
3;443
4;442
5;453
6;479
7;500
8;505
9;502
10;502
11;505
12;509
13;514
14;526
15;535
0;541
1;553
2;555
3;563
4;572
5;577
6;588
7;601
8;620
9;633
10;629
11;622
12;616
13;608
14;600
15;594
0;585
1;574
2;554
3;526
4;489
5;449
6;412
7;378
8;349
9;326
10;304
11;289
12;285
13;291
14;293
15;293
0;295
1;301
2;312
3;321
4;327
5;334
6;347
7;371
8;398
9;414
10;430
11;445
12;449
13;444
14;446
15;451
0;451
1;453
2;454
3;459
4;468
5;474
6;478
7;476
8;476
9;480
10;486
11;493
12;502
13;508
14;522
15;536
0;547
1;552
2;553
3;549
4;542
5;536
6;533
7;530
8;522
9;513
10;511
11;514
12;523
13;534
14;542
15;549
0;546
1;543
2;541
3;536
4;534
5;537
6;536
7;527
8;518
9;518
10;522
11;525
12;527
13;529
14;531
15;536
0;540
1;543
2;541
3;539
4;530
5;521
6;522
7;530
8;542
9;552
10;555
11;550
12;551
13;552
14;551
15;556
0;565
1;573
2;575
3;568
4;563
5;563
6;563
7;577
8;590
9;593
10;589
11;582
12;577
13;574
14;583
15;592
0;593
1;594
2;584
3;581
4;580
5;581
6;579
7;573
8;571
9;572
10;576
11;581
12;592
13;603
14;604
15;607
0;614
1;612
2;601
3;589
4;582
5;580
6;575
7;576
8;580
9;580
10;575
11;568
12;564
13;564
14;570
15;569
0;559
1;550
2;542
3;540
4;551
5;564
6;569
7;568
8;564
9;558
10;556
11;558
12;560
13;560
14;555
15;548
0;540
1;536
2;536
3;534
4;530
5;526
6;522
7;526
8;534
9;526
10;515
11;515
12;523
13;531
14;537
15;536
0;534
1;539
2;550
3;555
4;547
5;536
6;520
7;506
8;500
9;509
10;517
11;517
12;517
13;512
14;505
15;498
0;501
1;509
2;505
3;498
4;491
5;489
6;489
7;488
8;487
9;486
10;487
11;488
12;486
13;487
14;484
15;480
0;480
1;482
2;483
3;483
4;483
5;484
6;483
7;486
8;487
9;487
10;486
11;483
12;486
13;490
14;494
15;496
0;497
1;502
2;504
3;505
4;505
5;503
6;497
7;491
8;482
9;472
10;460
11;455
12;454
13;455
14;458
15;462
0;465
1;473
2;478
3;479
4;484
5;492
6;495
7;491
8;484
9;477
10;476
11;482
12;485
13;482
14;477
15;474
0;472
1;479
2;480
3;470
4;464
5;464
6;464
7;475
8;479
9;480
10;478
11;477
12;482
13;481
14;478
15;476
0;472
1;466
2;462
3;456
4;449
5;456
6;472
7;490
8;510
9;524
10;523
11;517
12;510
13;513
14;518
15;513
0;504
1;493
2;485
3;480
4;482
5;484
6;483
7;480
8;475
9;467
10;464
11;464
12;468
13;472
14;476
15;478
0;478
1;476
2;477
3;479
4;477
5;475
6;469
7;463
8;465
9;471
10;473
11;477
12;479
13;481
14;495
15;515
0;529
1;539
2;545
3;553
4;566
5;582
6;598
7;613
8;624
9;629
10;626
11;622
12;615
13;612
14;612
15;610
0;596
1;578
2;557
3;533
4;504
5;472
6;433
7;400
8;372
9;352
10;338
11;332
12;329
13;327
14;327
15;333
0;342
1;350
2;362
3;385
4;416
5;451
6;478
7;503
8;518
9;511
10;498
11;483
12;465
13;445
14;421
15;408
0;399
1;393
2;388
3;390
4;409
5;431
6;454
7;470
8;482
9;495
10;505
11;511
12;520
13;527
14;527
15;527
0;528
1;529
2;529
3;527
4;522
5;519
6;512
7;496
8;477
9;462
10;453
11;451
12;454
13;453
14;452
15;455
0;462
1;471
2;482
3;496
4;505
5;512
6;522
7;528
8;536
9;543
10;544
11;551
12;563
13;576
14;589
15;601
0;599
1;600
2;605
3;615
4;627
5;642
6;655
7;663
8;676
9;698
10;716
11;726
12;732
13;736
14;750
15;764
0;776
1;791
2;797
3;799
4;804
5;804
6;802
7;806
8;806
9;807
10;814
11;820
12;820
13;828
14;832
15;828
0;817
1;804
2;799
3;804
4;808
5;811
6;811
7;811
8;812
9;820
10;836
11;851
12;857
13;861
14;863
15;858
0;852
1;861
2;875
3;887
4;889
5;893
6;902
7;918
8;925
9;931
10;950
11;967
12;967
13;962
14;950
15;942
0;932
1;923
2;919
3;917
4;911
5;907
6;908
7;915
8;925
9;932
10;940
11;954
12;969
13;976
14;978
15;981
0;982
1;980
2;983
3;983
4;984
5;991
6;1000
7;1012
8;1022
9;1022
10;1022
11;1022
12;1022
13;1022
14;1022
15;1022
0;1022
1;1022
2;1022
3;1022
4;1022
5;1022
6;1022
7;1022
8;1022
9;1022
10;1022
11;1022
12;1022
13;1022
14;1023
15;1022
0;1022
1;1022
2;1022
3;1022
4;1023
5;1022
6;1022
7;1022
8;1022
9;1022
10;1022
11;1022
12;1022
13;1022
14;1023
15;1022
0;1022
1;1022
2;1022
3;1022
4;1022
5;1022
6;1023
7;1023
8;1022
9;1022
10;1022
11;1022
12;1022
13;1022
14;1022
15;1022
0;1023
1;1022
2;1022
3;1022
4;1022
5;1023
6;1023
7;1022
8;1022
9;1022
10;1022
11;1023
12;1023
13;1022
14;1023
15;1022
0;1022
1;1022
2;1022
3;1022
4;1022
5;1023
6;1023
7;1022
8;1022
9;1022
10;1022
11;1022
12;1022
13;1022
14;1022
15;1022
0;1022
1;1022
2;1022
3;1022
4;1022
5;1022
6;1022
7;1022
8;1022
9;1022
10;1022
11;1022
12;1022
13;1022
14;1022
15;1022
0;1022
1;1022
2;1022
3;1022
4;1016
5;1004
6;992
7;989
8;991
9;992
10;998
11;1011
12;1022
13;1022
14;1022
15;1019
0;1001
1;988
2;979
3;965
4;952
5;943
6;930
7;916
8;914
9;917
10;920
11;926
12;924
13;915
14;907
15;892
0;875
1;857
2;845
3;839
4;830
5;815
6;798
7;788
8;784
9;777
10;771
11;777
12;787
13;789
14;788
15;791
0;789
1;774
2;768
3;761
4;748
5;745
6;751
7;756
8;758
9;754
10;745
11;732
12;708
13;680
14;651
15;625
0;601
1;579
2;550
3;519
4;491
5;460
6;429
7;390
8;347
9;311
10;280
11;252
12;232
13;216
14;196
15;184
0;175
1;166
2;156
3;144
4;134
5;122
6;120
7;110
8;97
9;85
10;66
11;46
12;23
13;4
14;0
15;0
0;0
1;0
2;0
3;0
4;0
5;0
6;0
7;0
8;0
9;0
10;0
11;0
12;0
13;0
14;0
15;0
0;0
1;0
2;0
3;0
4;0
5;0
6;0
7;0
8;0
9;0
10;0
11;0
12;0
13;0
14;0
15;0
0;0
1;0
2;0
3;0
4;0
5;0
6;0
7;0
8;0
9;0
10;0
11;0
12;0
13;0
14;0
15;0
0;0
1;0
2;0
3;0
4;0
5;0
6;0
7;0
8;0
9;0
10;0
11;0
12;0
13;0
14;0
15;0
0;0
1;0
2;0
3;0
4;0
5;0
6;0
7;0
8;0
9;0
10;0
11;0
12;0
13;0
14;0
15;0
0;0
1;0
2;0
3;0
4;0
5;0
6;0
7;0
8;0
9;0
10;0
11;0
12;0
13;0
14;0
15;0
0;0
1;0
2;0
3;0
4;0
5;0
6;0
7;0
8;0
9;0
10;0
11;0
12;0
13;0
14;0
15;0
0;0
1;0
2;0
3;0
4;0
5;0
6;0
7;0
8;0
9;0
10;0
11;0
12;0
13;0
14;0
15;0
0;0
1;0
2;0
3;0
4;0
5;0
6;0
7;0
8;0
9;0
10;0
11;0
12;0
13;0
14;0
15;0
0;0
1;0
2;0
3;0
4;0
5;0
6;0
7;0
8;4
9;23
10;38
11;40
12;38
13;39
14;39
15;27
0;10
1;0
2;1
3;7
4;13
5;19
6;22
7;19
8;23
9;27
10;30
11;39
12;54
13;62
14;63
15;62
0;62
1;65
2;62
3;58
4;50
5;45
6;62
7;87
8;111
9;127
10;147
11;166
12;178
13;187
14;190
15;192
0;189
1;180
2;174
3;167
4;157
5;151
6;150
7;152
8;155
9;153
10;143
11;130
12;116
13;115
14;121
15;139
0;162
1;177
2;184
3;188
4;186
5;173
6;159
7;156
8;164
9;185
10;218
11;246
12;252
13;253
14;263
15;282
0;300
1;312
2;330
3;353
4;364
5;365
6;364
7;361
8;363
9;362
10;361
11;356
12;351
13;347
14;345
15;349
0;364
1;386
2;392
3;381
4;365
5;352
6;347
7;350
8;352
9;352
10;351
11;350
12;348
13;339
14;326
15;316
0;311
1;301
2;288
3;281
4;290
5;308
6;335
7;354
8;372
9;385
10;401
11;417
12;423
13;424
14;423
15;424
0;437
1;445
2;444
3;436
4;430
5;429
6;425
7;417
8;420
9;440
10;449
11;451
12;452
13;452
14;461
15;478
0;489
1;489
2;483
3;490
4;509
5;523
6;537
7;547
8;546
9;537
10;528
11;522
12;514
13;503
14;494
15;477
0;460
1;445
2;429
3;414
4;396
5;379
6;364
7;352
8;342
9;334
10;330
11;325
12;313
13;304
14;298
15;295
0;304
1;321
2;330
3;335
4;340
5;345
6;359
7;388
8;411
9;419
10;414
11;406
12;410
13;435
14;464
15;486
0;498
1;502
2;500
3;499
4;505
5;515
6;527
7;530
8;525
9;525
10;529
11;525
12;519
13;521
14;525
15;531
0;537
1;540
2;543
3;551
4;554
5;553
6;558
7;560
8;553
9;545
10;534
11;517
12;515
13;513
14;508
15;506
0;511
1;534
2;554
3;562
4;560
5;552
6;542
7;525
8;501
9;476
10;454
11;451
12;456
13;456
14;464
15;493
0;525
1;556
2;577
3;591
4;606
5;624
6;640
7;653
8;657
9;653
10;648
11;640
12;632
13;625
14;616
15;605
0;587
1;578
2;583
3;595
4;606
5;607
6;606
7;611
8;616
9;631
10;647
11;667
12;680
13;680
14;679
15;684
0;678
1;660
2;640
3;625
4;624
5;626
6;624
7;620
8;622
9;622
10;613
11;597
12;582
13;569
14;563
15;568
0;584
1;599
2;605
3;604
4;607
5;608
6;603
7;599
8;592
9;586
10;583
11;581
12;578
13;574
14;564
15;555
0;544
1;533
2;539
3;559
4;568
5;568
6;565
7;558
8;553
9;556
10;561
11;569
12;579
13;589
14;600
15;619
0;632
1;633
2;632
3;631
4;625
5;624
6;623
7;620
8;617
9;618
10;615
11;602
12;584
13;573
14;571
15;577
0;585
1;591
2;591
3;580
4;570
5;556
6;551
7;556
8;560
9;560
10;557
11;552
12;547
13;538
14;532
15;524
0;519
1;527
2;530
3;519
4;501
5;485
6;477
7;480
8;486
9;491
10;510
11;535
12;559
13;576
14;572
15;568
0;570
1;574
2;576
3;580
4;583
5;579
6;578
7;579
8;582
9;586
10;595
11;621
12;640
13;630
14;613
15;600
0;589
1;577
2;563
3;556
4;556
5;551
6;548
7;543
8;538
9;532
10;538
11;539
12;526
13;512
14;510
15;522
0;535
1;544
2;543
3;534
4;531
5;530
6;528
7;531
8;523
9;511
10;506
11;504
12;506
13;514
14;522
15;526
0;521
1;515
2;500
3;487
4;473
5;462
6;461
7;467
8;471
9;469
10;465
11;464
12;464
13;464
14;470
15;476
0;497
1;543
2;593
3;617
4;620
5;612
6;602
7;592
8;580
9;575
10;572
11;572
12;582
13;587
14;577
15;562
0;551
1;547
2;549
3;549
4;541
5;534
6;533
7;539
8;542
9;550
10;551
11;550
12;546
13;544
14;547
15;557
0;562
1;557
2;548
3;537
4;521
5;508
6;501
7;502
8;503
9;504
10;508
11;519
12;541
13;574
14;614
15;642
0;659
1;671
2;678
3;682
4;679
5;668
6;653
7;639
8;624
9;602
10;579
11;556
12;537
13;521
14;522
15;531
0;519
1;491
2;454
3;421
4;394
5;373
6;358
7;355
8;361
9;379
10;396
11;407
12;414
13;419
14;424
15;434
0;448
1;466
2;473
3;481
4;476
5;468
6;463
7;471
8;482
9;469
10;441
11;416
12;413
13;440
14;489
15;537
0;571
1;582
2;579
3;573
4;570
5;560
6;543
7;524
8;513
9;520
10;556
11;606
12;664
13;701
14;695
15;676
0;665
1;649
2;629
3;614
4;606
5;593
6;586
7;585
8;592
9;597
10;604
11;586
12;549
13;532
14;545
15;576
0;600
1;611
2;620
3;625
4;621
5;623
6;624
7;630
8;629
9;623
10;618
11;615
12;612
13;610
14;615
15;617
0;611
1;617
2;626
3;620
4;625
5;643
6;665
7;689
8;700
9;677
10;641
11;615
12;591
13;570
14;561
15;551
0;549
1;566
2;594
3;618
4;633
5;645
6;645
7;642
8;647
9;650
10;656
11;671
12;679
13;668
14;656
15;653
0;653
1;651
2;647
3;645
4;647
5;649
6;646
7;640
8;637
9;632
10;615
11;605
12;611
13;607
14;598
15;590
0;581
1;566
2;557
3;571
4;593
5;613
6;633
7;650
8;666
9;674
10;681
11;692
12;700
13;707
14;708
15;694
0;678
1;655
2;631
3;622
4;628
5;647
6;664
7;681
8;692
9;679
10;663
11;647
12;629
13;617
14;608
15;598
0;585
1;578
2;577
3;590
4;619
5;664
6;706
7;713
8;696
9;660
10;612
11;581
12;566
13;557
14;556
15;549
0;544
1;539
2;547
3;554
4;563
5;591
6;610
7;604
8;591
9;580
10;582
11;582
12;588
13;591
14;588
15;577
0;555
1;535
2;524
3;518
4;519
5;526
6;524
7;528
8;531
9;537
10;544
11;548
12;550
13;546
14;540
15;533
0;525
1;518
2;514
3;516
4;511
5;495
6;493
7;510
8;514
9;520
10;523
11;525
12;531
13;546
14;573
15;589
0;600
1;596
2;588
3;594
4;599
5;598
6;579
7;553
8;549
9;544
10;537
11;512
12;485
13;480
14;483
15;484
0;481
1;489
2;498
3;501
4;502
5;507
6;515
7;523
8;542
9;564
10;575
11;585
12;583
13;580
14;572
15;537
0;496
1;469
2;461
3;466
4;472
5;479
6;485
7;486
8;489
9;490
10;491
11;490
12;487
13;482
14;476
15;472
0;467
1;469
2;466
3;464
4;464
5;471
6;475
7;471
8;461
9;471
10;502
11;523
12;537
13;551
14;556
15;558
0;554
1;545
2;530
3;522
4;518
5;513
6;514
7;515
8;513
9;517
10;538
11;548
12;569
13;583
14;588
15;587
0;576
1;565
2;563
3;562
4;550
5;535
6;529
7;540
8;559
9;579
10;597
11;610
12;614
13;618
14;620
15;622
0;633
1;649
2;660
3;647
4;622
5;619
6;624
7;610
8;576
9;533
10;499
11;470
12;441
13;403
14;370
15;345
0;323
1;313
2;312
3;313
4;312
5;309
6;309
7;310
8;313
9;300
10;289
11;302
12;329
13;366
14;416
15;452
0;472
1;483
2;487
3;481
4;471
5;465
6;467
7;465
8;467
9;472
10;477
11;471
12;470
13;469
14;475
15;477
0;483
1;499
2;519
3;544
4;570
5;584
6;589
7;589
8;585
9;580
10;575
11;566
12;558
13;551
14;544
15;536
0;529
1;522
2;523
3;541
4;564
5;584
6;585
7;580
8;569
9;562
10;564
11;571
12;577
13;578
14;572
15;557
0;543
1;537
2;546
3;573
4;607
5;639
6;677
7;702
8;712
9;683
10;610
11;554
12;536
13;534
14;549
15;565
0;588
1;609
2;626
3;651
4;664
5;651
6;621
7;590
8;561
9;530
10;510
11;503
12;510
13;525
14;544
15;553
0;558
1;569
2;584
3;596
4;601
5;595
6;586
7;577
8;569
9;570
10;576
11;586
12;601
13;612
14;614
15;604
0;603
1;609
2;613
3;613
4;614
5;615
6;615
7;609
8;611
9;617
10;623
11;622
12;623
13;628
14;631
15;625
0;622
1;628
2;629
3;621
4;614
5;615
6;616
7;616
8;618
9;619
10;617
11;597
12;577
13;566
14;560
15;565
0;574
1;583
2;591
3;604
4;613
5;604
6;590
7;575
8;556
9;534
10;529
11;538
12;538
13;537
14;546
15;556
0;572
1;590
2;607
3;622
4;638
5;626
6;587
7;553
8;535
9;526
10;518
11;508
12;498
13;491
14;486
15;489
0;486
1;476
2;476
3;483
4;492
5;499
6;504
7;503
8;497
9;493
10;491
11;494
12;504
13;519
14;538
15;532
0;517
1;497
2;472
3;459
4;463
5;472
6;484
7;493
8;498
9;502
10;508
11;512
12;511
13;514
14;510
15;497
0;496
1;498
2;499
3;493
4;489
5;491
6;503
7;510
8;503
9;486
10;473
11;461
12;467
13;479
14;488
15;492
0;491
1;482
2;473
3;470
4;474
5;478
6;487
7;502
8;519
9;544
10;561
11;561
12;544
13;505
14;466
15;436
0;433
1;433
2;430
3;432
4;438
5;455
6;486
7;504
8;513
9;512
10;501
11;495
12;486
13;475
14;471
15;460
0;447
1;428
2;405
3;410
4;448
5;517
6;590
7;625
8;621
9;585
10;544
11;507
12;480
13;463
14;457
15;453
0;452
1;453
2;453
3;456
4;460
5;460
6;461
7;464
8;467
9;475
10;476
11;478
12;483
13;482
14;477
15;476
0;475
1;475
2;482
3;487
4;488
5;492
6;497
7;493
8;487
9;487
10;487
11;487
12;488
13;485
14;482
15;483
0;487
1;493
2;498
3;505
4;519
5;534
6;550
7;563
8;574
9;588
10;609
11;624
12;631
13;632
14;629
15;622
0;612
1;597
2;585
3;583
4;580
5;563
6;544
7;527
8;523
9;515
10;482
11;439
12;393
13;355
14;350
15;350
0;336
1;321
2;307
3;296
4;294
5;290
6;287
7;304
8;333
9;374
10;424
11;463
12;497
13;503
14;483
15;462
0;442
1;435
2;435
3;431
4;423
5;424
6;425
7;428
8;434
9;445
10;454
11;462
12;479
13;502
14;535
15;558
0;548
1;520
2;489
3;451
4;422
5;417
6;458
7;513
8;543
9;553
10;556
11;556
12;556
13;557
14;551
15;553
0;555
1;558
2;559
3;550
4;545
5;544
6;541
7;541
8;541
9;541
10;542
11;546
12;552
13;556
14;564
15;573
0;575
1;570
2;560
3;556
4;553
5;550
6;551
7;551
8;552
9;553
10;557
11;553
12;550
13;551
14;553
15;557
0;560
1;563
2;564
3;566
4;563
5;558
6;562
7;569
8;571
9;570
10;568
11;569
12;579
13;589
14;601
15;606
0;603
1;601
2;602
3;610
4;614
5;613
6;611
7;600
8;583
9;573
10;571
11;577
12;606
13;651
14;684
15;696
0;691
1;675
2;647
3;624
4;604
5;586
6;576
7;577
8;573
9;563
10;556
11;554
12;556
13;553
14;549
15;554
0;550
1;552
2;560
3;559
4;556
5;550
6;556
7;568
8;575
9;576
10;572
11;570
12;572
13;572
14;571
15;574
0;579
1;580
2;575
3;564
4;554
5;548
6;542
7;534
8;527
9;523
10;519
11;519
12;521
13;524
14;524
15;522
0;527
1;540
2;549
3;545
4;535
5;529
6;526
7;520
8;511
9;510
10;513
11;519
12;526
13;529
14;528
15;529
0;533
1;533
2;530
3;522
4;521
5;525
6;516
7;511
8;515
9;515
10;506
11;501
12;501
13;500
14;501
15;512
0;525
1;525
2;526
3;525
4;518
5;509
6;495
7;495
8;502
9;503
10;499
11;489
12;487
13;499
14;506
15;505
0;495
1;487
2;478
3;470
4;468
5;473
6;481
7;492
8;493
9;487
10;477
11;471
12;472
13;480
14;489
15;487
0;478
1;474
2;485
3;499
4;504
5;509
6;505
7;499
8;504
9;503
10;494
11;484
12;479
13;479
14;480
15;487
0;495
1;488
2;476
3;477
4;485
5;495
6;510
7;518
8;517
9;506
10;491
11;485
12;475
13;456
14;449
15;448
0;445
1;448
2;451
3;456
4;466
5;483
6;487
7;480
8;478
9;472
10;459
11;453
12;459
13;467
14;470
15;468
0;466
1;470
2;467
3;461
4;463
5;472
6;478
7;477
8;475
9;471
10;474
11;482
12;490
13;504
14;517
15;535
0;548
1;555
2;551
3;530
4;514
5;494
6;471
7;453
8;449
9;456
10;470
11;471
12;474
13;479
14;474
15;469
0;473
1;485
2;510
3;556
4;598
5;620
6;614
7;602
8;603
9;602
10;598
11;598
12;593
13;585
14;565
15;553
0;550
1;552
2;556
3;557
4;534
5;512
6;489
7;457
8;426
9;403
10;387
11;369
12;358
13;353
14;349
15;342
0;340
1;356
2;365
3;359
4;353
5;352
6;359
7;374
8;388
9;407
10;432
11;451
12;458
13;463
14;467
15;472
0;472
1;472
2;473
3;480
4;486
5;490
6;483
7;480
8;480
9;485
10;492
11;496
12;499
13;504
14;511
15;519
0;524
1;524
2;519
3;524
4;529
5;539
6;553
7;559
8;558
9;564
10;571
11;564
12;556
13;547
14;536
15;544
0;562
1;564
2;548
3;521
4;502
5;495
6;494
7;498
8;506
9;525
10;529
11;527
12;525
13;523
14;521
15;519
0;530
1;544
2;543
3;527
4;512
5;499
6;504
7;515
8;520
9;524
10;527
11;529
12;536
13;537
14;537
15;539
0;536
1;543
2;547
3;555
4;568
5;559
6;555
7;556
8;563
9;574
10;577
11;582
12;584
13;584
14;588
15;587
0;584
1;579
2;576
3;576
4;576
5;578
6;580
7;580
8;577
9;575
10;577
11;585
12;597
13;607
14;598
15;590
0;587
1;577
2;574
3;573
4;585
5;606
6;625
7;630
8;640
9;655
10;639
11;612
12;579
13;567
14;570
15;575
0;575
1;565
2;555
3;551
4;544
5;531
6;519
7;516
8;513
9;514
10;519
11;528
12;535
13;545
14;551
15;548
0;542
1;540
2;541
3;542
4;539
5;531
6;527
7;519
8;509
9;503
10;511
11;519
12;521
13;513
14;508
15;505
0;499
1;502
2;513
3;527
4;533
5;529
6;519
7;516
8;515
9;510
10;502
11;488
12;485
13;490
14;500
15;512
0;513
1;518
2;526
3;533
4;534
5;523
6;512
7;517
8;529
9;539
10;529
11;514
12;502
13;488
14;489
15;489
0;487
1;489
2;493
3;500
4;506
5;509
6;511
7;507
8;500
9;492
10;487
11;485
12;484
13;482
14;486
15;488
0;495
1;505
2;515
3;529
4;525
5;509
6;498
7;488
8;493
9;503
10;505
11;507
12;514
13;524
14;525
15;532
0;546
1;544
2;534
3;521
4;504
5;479
6;459
7;453
8;462
9;470
10;483
11;512
12;547
13;547
14;527
15;511
0;490
1;469
2;467
3;481
4;481
5;477
6;483
7;479
8;473
9;486
10;501
11;498
12;479
13;472
14;466
15;452
0;450
1;449
2;448
3;456
4;471
5;483
6;491
7;493
8;494
9;493
10;498
11;496
12;487
13;484
14;489
15;495
0;500
1;496
2;487
3;480
4;479
5;486
6;499
7;508
8;504
9;499
10;496
11;496
12;497
13;494
14;497
15;496
0;488
1;480
2;478
3;482
4;496
5;508
6;513
7;520
8;525
9;527
10;531
11;542
12;563
13;584
14;597
15;582
0;553
1;524
2;503
3;491
4;500
5;525
6;545
7;558
8;563
9;570
10;573
11;579
12;584
13;591
14;602
15;585
0;558
1;535
2;517
3;504
4;496
5;474
6;441
7;416
8;401
9;391
10;372
11;359
12;353
13;347
14;339
15;338
0;355
1;379
2;408
3;422
4;425
5;439
6;452
7;457
8;454
9;446
10;446
11;450
12;454
13;461
14;464
15;467
0;466
1;465
2;471
3;487
4;510
5;523
6;527
7;532
8;530
9;520
10;506
11;503
12;503
13;508
14;511
15;505
0;507
1;508
2;507
3;504
4;496
5;480
6;470
7;487
8;529
9;561
10;571
11;575
12;567
13;550
14;532
15;514
0;503
1;503
2;510
3;527
4;546
5;550
6;551
7;543
8;532
9;533
10;535
11;526
12;519
13;526
14;532
15;549
0;561
1;566
2;567
3;554
4;543
5;543
6;547
7;548
8;548
9;543
10;542
11;541
12;532
13;528
14;529
15;536
0;539
1;532
2;527
3;527
4;538
5;556
6;580
7;593
8;585
9;577
10;572
11;565
12;571
13;578
14;571
15;561
0;541
1;512
2;506
3;512
4;527
5;546
6;557
7;566
8;573
9;580
10;587
11;587
12;581
13;576
14;578
15;578
0;575
1;566
2;562
3;567
4;569
5;568
6;564
7;564
8;577
9;581
10;581
11;583
12;589
13;593
14;588
15;589
0;590
1;579
2;568
3;565
4;556
5;554
6;561
7;558
8;542
9;534
10;533
11;527
12;526
13;530
14;532
15;529
0;523
1;516
2;513
3;516
4;511
5;510
6;513
7;525
8;537
9;546
10;561
11;559
12;540
13;520
14;512
15;511
0;509
1;498
2;484
3;476
4;475
5;481
6;489
7;492
8;494
9;493
10;495
11;497
12;503
13;516
14;531
15;535
0;526
1;519
2;512
3;489
4;467
5;464
6;474
7;485
8;489
9;496
10;514
11;534
12;547
13;548
14;545
15;529
0;507
1;495
2;495
3;499
4;512
5;521
6;508
7;493
8;487
9;490
10;504
11;518
12;522
13;552
14;577
15;585
0;582
1;571
2;558
3;543
4;531
5;515
6;499
7;488
8;483
9;479
10;474
11;465
12;457
13;456
14;458
15;466
0;472
1;472
2;476
3;485
4;496
5;494
6;487
7;495
8;505
9;505
10;501
11;498
12;483
13;464
14;455
15;462
0;469
1;474
2;472
3;463
4;458
5;463
6;466
7;464
8;472
9;488
10;497
11;503
12;504
13;504
14;497
15;492
0;495
1;503
2;495
3;484
4;481
5;479
6;473
7;468
8;471
9;480
10;486
11;489
12;491
13;491
14;487
15;481
0;485
1;492
2;499
3;510
4;526
5;541
6;548
7;545
8;531
9;511
10;505
11;504
12;496
13;490
14;488
15;491
0;497
1;500
2;506
3;500
4;495
5;491
6;499
7;511
8;523
9;538
10;551
11;553
12;551
13;553
14;548
15;552
0;559
1;567
2;573
3;575
4;577
5;582
6;574
7;550
8;529
9;523
10;523
11;517
12;510
13;509
14;495
15;473
0;454
1;441
2;433
3;424
4;409
5;396
6;379
7;366
8;359
9;360
10;362
11;360
12;358
13;360
14;366
15;370
0;377
1;391
2;412
3;431
4;450
5;459
6;460
7;463
8;466
9;466
10;465
11;465
12;472
13;483
14;496
15;509
0;507
1;501
2;498
3;503
4;522
5;542
6;553
7;557
8;557
9;546
10;539
11;542
12;530
13;524
14;521
15;516
0;515
1;504
2;483
3;470
4;473
5;491
6;525
7;552
8;555
9;550
10;547
11;553
12;559
13;560
14;573
15;582
0;568
1;553
2;547
3;547
4;549
5;552
6;556
7;557
8;551
9;549
10;546
11;544
12;540
13;536
14;535
15;531
0;532
1;529
2;529
3;530
4;531
5;537
6;541
7;540
8;540
9;542
10;551
11;557
12;554
13;554
14;557
15;557
0;552
1;554
2;556
3;561
4;562
5;553
6;543
7;548
8;561
9;578
10;590
11;600
12;606
13;610
14;611
15;604
0;599
1;600
2;605
3;618
4;623
5;616
6;607
7;596
8;587
9;583
10;579
11;584
12;592
13;591
14;585
15;572
0;556
1;551
2;551
3;549
4;552
5;565
6;570
7;562
8;548
9;551
10;575
11;577
12;568
13;564
14;558
15;563
0;573
1;576
2;572
3;571
4;576
5;569
6;563
7;555
8;552
9;548
10;550
11;550
12;546
13;554
14;558
15;555
0;543
1;530
2;519
3;508
4;503
5;499
6;494
7;490
8;492
9;495
10;503
11;511
12;513
13;515
14;510
15;506
0;502
1;500
2;496
3;502
4;500
5;485
6;480
7;481
8;490
9;496
10;498
11;501
12;501
13;506
14;512
15;518
0;524
1;518
2;505
3;500
4;499
5;492
6;483
7;475
8;475
9;482
10;497
11;509
12;512
13;513
14;510
15;505
0;504
1;505
2;505
3;503
4;503
5;498
6;491
7;487
8;485
9;489
10;501
11;525
12;546
13;547
14;542
15;529
0;514
1;514
2;526
3;524
4;512
5;499
6;496
7;501
8;498
9;505
10;514
11;514
12;508
13;493
14;490
15;489
0;485
1;486
2;487
3;483
4;471
5;464
6;462
7;463
8;463
9;461
10;456
11;452
12;462
13;478
14;485
15;488
0;494
1;496
2;497
3;497
4;496
5;489
6;488
7;487
8;482
9;468
10;446
11;434
12;438
13;454
14;467
15;476
0;484
1;484
2;479
3;475
4;473
5;473
6;477
7;485
8;485
9;486
10;487
11;487
12;491
13;497
14;502
15;504
0;502
1;502
2;502
3;504
4;505
5;504
6;506
7;502
8;503
9;492
10;475
11;467
12;467
13;468
14;465
15;471
0;479
1;490
2;505
3;518
4;512
5;500
6;490
7;501
8;521
9;537
10;549
11;565
12;583
13;612
14;630
15;643
0;643
1;623
2;600
3;595
4;591
5;584
6;574
7;568
8;567
9;551
10;532
11;504
12;466
13;438
14;416
15;390
0;370
1;356
2;342
3;337
4;337
5;339
6;337
7;332
8;325
9;328
10;340
11;355
12;362
13;367
14;375
15;388
0;399
1;410
2;419
3;429
4;442
5;454
6;462
7;462
8;466
9;471
10;475
11;482
12;493
13;503
14;505
15;503
0;497
1;493
2;494
3;495
4;491
5;489
6;488
7;490
8;486
9;488
10;498
11;505
12;512
13;518
14;527
15;542
0;559
1;551
2;549
3;556
4;566
5;568
6;565
7;546
8;517
9;501
10;496
11;495
12;508
13;518
14;532
15;542
0;550
1;567
2;579
3;581
4;573
5;560
6;543
7;536
8;531
9;524
10;517
11;513
12;521
13;532
14;539
15;542
0;547
1;555
2;560
3;568
4;567
5;557
6;551
7;549
8;550
9;550
10;547
11;547
12;547
13;550
14;552
15;552
0;553
1;559
2;565
3;570
4;573
5;575
6;573
7;566
8;566
9;573
10;574
11;576
12;583
13;587
14;592
15;601
0;600
1;602
2;608
3;611
4;609
5;596
6;585
7;585
8;581
9;577
10;571
11;570
12;572
13;567
14;569
15;578
0;578
1;583
2;598
3;604
4;606
5;608
6;604
7;594
8;588
9;580
10;589
11;594
12;589
13;580
14;560
15;538
0;528
1;526
2;529
3;534
4;552
5;571
6;581
7;581
8;571
9;563
10;555
11;538
12;516
13;499
14;502
15;510
0;512
1;503
2;502
3;502
4;501
5;500
6;508
7;507
8;502
9;505
10;516
11;531
12;538
13;534
14;526
15;519
0;514
1;512
2;512
3;515
4;517
5;513
6;514
7;519
8;524
9;524
10;521
11;522
12;525
13;524
14;526
15;515
0;504
1;500
2;502
3;496
4;492
5;501
6;510
7;507
8;507
9;503
10;496
11;493
12;496
13;493
14;498
15;519
0;523
1;523
2;515
3;511
4;506
5;502
6;506
7;498
8;485
9;485
10;493
11;497
12;497
13;496
14;492
15;487
0;478
1;475
2;471
3;469
4;472
5;473
6;471
7;472
8;475
9;475
10;471
11;473
12;474
13;467
14;469
15;474
0;482
1;491
2;497
3;497
4;491
5;484
6;481
7;487
8;495
9;500
10;499
11;495
12;488
13;483
14;487
15;492
0;483
1;478
2;480
3;481
4;485
5;481
6;481
7;490
8;496
9;500
10;486
11;472
12;466
13;468
14;471
15;470
0;470
1;467
2;469
3;468
4;469
5;469
6;470
7;461
8;462
9;487
10;505
11;507
12;507
13;502
14;499
15;501
0;497
1;504
2;514
3;518
4;519
5;515
6;507
7;500
8;495
9;484
10;482
11;481
12;478
13;480
14;493
15;508
0;519
1;526
2;530
3;539
4;553
5;563
6;571
7;574
8;583
9;592
10;599
11;601
12;606
13;605
14;591
15;571
0;549
1;526
2;503
3;482
4;470
5;462
6;455
7;444
8;424
9;400
10;368
11;339
12;318
13;306
14;300
15;293
0;280
1;278
2;303
3;323
4;343
5;358
6;366
7;367
8;362
9;369
10;390
11;419
12;441
13;457
14;468
15;468
0;468
1;472
2;475
3;479
4;482
5;480
6;476
7;481
8;488
9;497
10;501
11;503
12;503
13;512
14;526
15;531
0;530
1;528
2;526
3;526
4;526
5;523
6;528
7;533
8;531
9;532
10;532
11;533
12;527
13;525
14;527
15;531
0;540
1;542
2;540
3;540
4;538
5;537
6;542
7;542
8;543
9;543
10;540
11;537
12;537
13;537
14;541
15;547
0;556
1;556
2;553
3;548
4;547
5;549
6;553
7;553
8;555
9;556
10;554
11;557
12;562
13;554
14;554
15;555
0;559
1;563
2;565
3;571
4;572
5;573
6;576
7;569
8;560
9;555
10;558
11;564
12;564
13;568
14;565
15;562
0;561
1;563
2;575
3;586
4;593
5;596
6;602
7;604
8;600
9;596
10;592
11;599
12;615
13;632
14;639
15;628
0;624
1;633
2;637
3;633
4;632
5;629
6;626
7;620
8;604
9;591
10;586
11;584
12;579
13;574
14;573
15;577
0;584
1;587
2;590
3;600
4;610
5;612
6;609
7;596
8;580
9;560
10;548
11;537
12;526
13;526
14;536
15;548
0;552
1;556
2;555
3;551
4;550
5;549
6;547
7;546
8;547
9;550
10;551
11;548
12;540
13;535
14;535
15;537
0;539
1;541
2;528
3;505
4;487
5;482
6;487
7;500
8;513
9;519
10;519
11;515
12;511
13;513
14;518
15;518
0;512
1;503
2;496
3;500
4;504
5;504
6;495
7;490
8;501
9;505
10;500
11;499
12;504
13;504
14;500
15;499
0;499
1;498
2;494
3;488
4;485
5;483
6;496
7;514
8;536
9;539
10;523
11;504
12;493
13;487
14;483
15;484
0;484
1;486
2;488
3;486
4;486
5;485
6;488
7;490
8;493
9;498
10;497
11;494
12;489
13;489
14;493
15;491
0;482
1;477
2;471
3;468
4;468
5;471
6;475
7;479
8;474
9;459
10;450
11;460
12;464
13;460
14;454
15;451
0;454
1;463
2;468
3;469
4;459
5;452
6;445
7;445
8;453
9;464
10;478
11;486
12;486
13;487
14;487
15;485
0;482
1;478
2;479
3;478
4;479
5;483
6;487
7;487
8;482
9;482
10;486
11;487
12;492
13;489
14;489
15;491
0;495
1;502
2;499
3;499
4;503
5;500
6;492
7;487
8;481
9;483
10;480
11;475
12;480
13;496
14;509
15;522
0;529
1;516
2;498
3;479
4;459
5;447
6;449
7;454
8;459
9;465
10;472
11;475
12;477
13;482
14;491
15;504
0;515
1;531
2;546
3;556
4;568
5;586
6;603
7;614
8;629
9;638
10;640
11;631
12;610
13;588
14;580
15;566
0;555
1;545
2;532
3;515
4;491
5;463
6;430
7;398
8;374
9;354
10;340
11;336
12;341
13;335
14;326
15;324
0;325
1;330
2;336
3;344
4;353
5;367
6;374
7;380
8;385
9;398
10;409
11;421
12;427
13;435
14;446
15;461
0;473
1;477
2;476
3;473
4;472
5;468
6;468
7;476
8;484
9;497
10;514
11;527
12;524
13;509
14;503
15;494
0;489
1;491
2;487
3;479
4;476
5;483
6;497
7;507
8;519
9;534
10;544
11;547
12;553
13;550
14;551
15;554
0;554
1;545
2;537
3;535
4;536
5;538
6;537
7;538
8;536
9;531
10;525
11;533
12;543
13;545
14;543
15;542
0;545
1;547
2;548
3;543
4;539
5;538
6;540
7;544
8;548
9;554
10;559
11;564
12;570
13;582
14;583
15;569
0;551
1;542
2;540
3;543
4;551
5;552
6;548
7;551
8;558
9;565
10;572
11;576
12;586
13;601
14;617
15;629
0;610
1;587
2;572
3;553
4;536
5;535
6;543
7;548
8;556
9;564
10;569
11;574
12;572
13;572
14;577
15;575
0;581
1;585
2;585
3;586
4;590
5;591
6;590
7;588
8;586
9;583
10;577
11;575
12;576
13;579
14;583
15;584
0;581
1;577
2;579
3;576
4;570
5;567
6;572
7;567
8;558
9;553
10;549
11;547
12;543
13;538
14;535
15;536
0;540
1;538
2;536
3;534
4;530
5;529
6;528
7;518
8;510
9;507
10;505
11;502
12;496
13;491
14;491
15;492
0;490
1;491
2;498
3;503
4;503
5;501
6;498
7;501
8;503
9;499
10;494
11;499
12;503
13;503
14;505
15;506
0;509
1;512
2;507
3;502
4;508
5;511
6;511
7;506
8;502
9;505
10;507
11;508
12;510
13;510
14;509
15;511
0;515
1;518
2;519
3;518
4;515
5;509
6;504
7;503
8;495
9;484
10;481
11;492
12;497
13;490
14;481
15;485
0;492
1;502
2;507
3;504
4;502
5;499
6;498
7;498
8;499
9;500
10;499
11;499
12;506
13;513
14;512
15;501
0;489
1;478
2;467
3;464
4;463
5;461
6;457
7;456
8;466
9;479
10;482
11;476
12;470
13;468
14;473
15;484
0;492
1;495
2;497
3;504
4;517
5;512
6;500
7;500
8;495
9;493
10;494
11;486
12;478
13;468
14;465
15;469
0;473
1;473
2;468
3;463
4;467
5;479
6;487
7;485
8;482
9;486
10;490
11;488
12;484
13;485
14;477
15;468
0;467
1;471
2;468
3;468
4;471
5;475
6;479
7;482
8;485
9;487
10;492
11;492
12;487
13;480
14;476
15;474
0;469
1;464
2;461
3;462
4;471
5;484
6;499
7;515
8;530
9;542
10;548
11;543
12;527
13;509
14;495
15;498
0;515
1;531
2;535
3;540
4;544
5;560
6;580
7;596
8;610
9;620
10;623
11;617
12;602
13;586
14;573
15;563
0;545
1;534
2;519
3;500
4;489
5;474
6;451
7;424
8;408
9;399
10;385
11;367
12;342
13;327
14;326
15;331
0;340
1;351
2;363
3;374
4;383
5;394
6;405
7;420
8;431
9;442
10;450
11;453
12;455
13;457
14;465
15;469
0;472
1;475
2;478
3;481
4;485
5;490
6;494
7;492
8;495
9;494
10;494
11;495
12;497
13;500
14;505
15;513
0;516
1;523
2;535
3;545
4;551
5;553
6;554
7;548
8;531
9;522
10;516
11;515
12;518
13;519
14;523
15;525
0;527
1;524
2;518
3;517
4;533
5;545
6;553
7;554
8;557
9;562
10;560
11;555
12;546
13;536
14;532
15;530
0;527
1;524
2;521
3;522
4;526
5;536
6;546
7;556
8;552
9;543
10;539
11;536
12;537
13;540
14;542
15;541
0;542
1;545
2;548
3;551
4;551
5;551
6;552
7;554
8;556
9;564
10;570
11;569
12;568
13;567
14;565
15;565
0;566
1;570
2;578
3;580
4;580
5;579
6;580
7;583
8;590
9;593
10;595
11;598
12;599
13;592
14;584
15;578
0;578
1;583
2;587
3;588
4;592
5;588
6;588
7;601
8;606
9;603
10;583
11;559
12;539
13;525
14;524
15;531
0;535
1;533
2;533
3;529
4;527
5;536
6;547
7;541
8;542
9;551
10;547
11;537
12;532
13;526
14;526
15;528
0;537
1;544
2;541
3;534
4;532
5;530
6;525
7;534
8;551
9;551
10;538
11;526
12;523
13;519
14;513
15;508
0;502
1;498
2;496
3;493
4;486
5;483
6;481
7;483
8;486
9;486
10;486
11;483
12;485
13;496
14;507
15;514
0;521
1;524
2;523
3;519
4;514
5;511
6;511
7;511
8;512
9;519
10;527
11;532
12;531
13;516
14;499
15;484
0;477
1;478
2;487
3;494
4;495
5;491
6;487
7;480
8;486
9;490
10;494
11;487
12;483
13;485
14;494
15;498
0;501
1;507
2;504
3;500
4;499
5;504
6;506
7;501
8;489
9;483
10;489
11;501
12;508
13;503
14;494
15;484
0;477
1;486
2;485
3;482
4;489
5;499
6;505
7;502
8;495
9;489
10;487
11;484
12;482
13;482
14;485
15;484
0;487
1;489
2;484
3;481
4;477
5;478
6;487
7;489
8;489
9;486
10;483
11;490
12;496
13;500
14;510
15;511
0;499
1;489
2;487
3;488
4;487
5;481
6;480
7;482
8;481
9;473
10;465
11;455
12;452
13;453
14;454
15;461
0;465
1;470
2;481
3;487
4;488
5;487
6;484
7;486
8;490
9;493
10;504
11;516
12;514
13;506
14;502
15;500
0;496
1;497
2;500
3;499
4;504
5;501
6;492
7;483
8;480
9;481
10;492
11;499
12;499
13;495
14;490
15;494
0;508
1;525
2;547
3;568
4;577
5;585
6;589
7;594
8;599
9;601
10;600
11;593
12;581
13;572
14;563
15;556
0;554
1;553
2;549
3;540
4;526
5;501
6;472
7;438
8;412
9;392
10;375
11;363
12;359
13;357
14;359
15;363
0;363
1;368
2;377
3;382
4;391
5;402
6;409
7;423
8;425
9;428
10;433
11;438
12;439
13;431
14;425
15;426
0;433
1;446
2;458
3;471
4;490
5;504
6;504
7;502
8;506
9;507
10;504
11;505
12;510
13;511
14;518
15;524
0;524
1;521
2;524
3;521
4;521
5;523
6;527
7;528
8;527
9;521
10;514
11;509
12;512
13;518
14;523
15;524
0;525
1;533
2;543
3;551
4;554
5;556
6;557
7;562
8;577
9;580
10;573
11;568
12;561
13;552
14;542
15;531
0;530
1;534
2;542
3;551
4;553
5;547
6;540
7;540
8;545
9;544
10;536
11;524
12;516
13;515
14;515
15;519
0;525
1;527
2;528
3;527
4;528
5;527
6;527
7;539
8;549
9;557
10;563
11;562
12;556
13;553
14;558
15;564
0;570
1;576
2;578
3;574
4;571
5;572
6;576
7;577
8;579
9;581
10;579
11;583
12;592
13;598
14;605
15;603
0;592
1;576
2;563
3;557
4;556
5;556
6;553
7;548
8;543
9;541
10;539
11;538
12;541
13;546
14;556
15;561
0;561
1;561
2;564
3;557
4;548
5;541
6;543
7;548
8;558
9;565
10;556
11;539
12;530
13;529
14;524
15;517
0;511
1;509
2;505
3;502
4;507
5;517
6;518
7;518
8;522
9;531
10;537
11;531
12;526
13;525
14;523
15;524
0;526
1;524
2;516
3;510
4;500
5;498
6;500
7;498
8;497
9;498
10;502
11;502
12;497
13;508
14;511
15;513
0;523
1;537
2;547
3;546
4;543
5;537
6;527
7;515
8;503
9;491
10;489
11;491
12;492
13;492
14;489
15;486
0;485
1;492
2;499
3;500
4;495
5;493
6;499
7;506
8;508
9;515
10;535
11;547
12;545
13;529
14;516
15;503
0;494
1;486
2;487
3;486
4;481
5;482
6;481
7;478
8;476
9;480
10;482
11;480
12;477
13;477
14;479
15;482
0;483
1;487
2;492
3;494
4;491
5;484
6;480
7;484
8;492
9;494
10;488
11;487
12;490
13;488
14;491
15;501
0;512
1;513
2;507
3;497
4;497
5;505
6;513
7;515
8;520
9;529
10;527
11;511
12;493
13;479
14;472
15;473
0;476
1;476
2;480
3;480
4;477
5;478
6;477
7;481
8;489
9;490
10;479
11;484
12;490
13;479
14;473
15;480
0;486
1;478
2;466
3;468
4;476
5;481
6;480
7;480
8;481
9;482
10;479
11;477
12;476
13;477
14;482
15;487
0;488
1;491
2;491
3;489
4;488
5;490
6;489
7;489
8;490
9;488
10;488
11;490
12;495
13;501
14;506
15;510
0;518
1;528
2;542
3;548
4;556
5;564
6;570
7;576
8;573
9;563
10;560
11;567
12;561
13;543
14;532
15;525
0;517
1;507
2;509
3;519
4;512
5;498
6;480
7;462
8;445
9;424
10;401
11;384
12;378
13;378
14;376
15;380
0;389
1;405
2;410
3;407
4;411
5;424
6;432
7;445
8;451
9;446
10;433
11;433
12;440
13;440
14;435
15;441
0;451
1;463
2;477
3;484
4;483
5;478
6;479
7;487
8;495
9;501
10;496
11;493
12;489
13;487
14;487
15;494
0;504
1;512
2;521
3;528
4;531
5;534
6;533
7;529
8;524
9;523
10;523
11;519
12;517
13;517
14;520
15;523
0;523
1;528
2;538
3;544
4;545
5;545
6;546
7;548
8;563
9;584
10;602
11;603
12;590
13;575
14;566
15;555
0;542
1;528
2;524
3;540
4;559
5;569
6;570
7;569
8;567
9;561
10;561
11;560
12;555
13;556
14;560
15;574
0;580
1;568
2;547
3;527
4;519
5;530
6;536
7;537
8;538
9;544
10;546
11;550
12;555
13;559
14;561
15;558
0;548
1;542
2;544
3;550
4;558
5;563
6;570
7;574
8;576
9;580
10;584
11;581
12;572
13;566
14;563
15;561
0;564
1;568
2;572
3;579
4;577
5;572
6;572
7;570
8;569
9;569
10;572
11;571
12;566
13;558
14;553
15;550
0;543
1;541
2;545
3;558
4;568
5;566
6;574
7;579
8;582
9;580
10;570
11;563
12;554
13;535
14;528
15;530
0;527
1;523
2;519
3;520
4;519
5;518
6;520
7;530
8;539
9;541
10;535
11;526
12;522
13;518
14;518
15;524
0;532
1;529
2;522
3;519
4;519
5;516
6;513
7;512
8;511
9;502
10;495
11;489
12;488
13;485
14;484
15;483
0;483
1;486
2;487
3;489
4;495
5;498
6;498
7;500
8;506
9;514
10;514
11;513
12;515
13;519
14;523
15;520
0;519
1;513
2;509
3;508
4;507
5;507
6;517
7;520
8;515
9;507
10;504
11;502
12;504
13;507
14;513
15;520
0;532
1;541
2;539
3;526
4;502
5;484
6;477
7;486
8;493
9;497
10;498
11;499
12;499
13;492
14;490
15;490
0;488
1;489
2;488
3;482
4;471
5;462
6;456
7;455
8;459
9;462
10;464
11;465
12;467
13;477
14;485
15;487
0;487
1;493
2;497
3;497
4;501
5;500
6;505
7;505
8;496
9;487
10;480
11;472
12;469
13;472
14;476
15;478
0;480
1;482
2;486
3;487
4;488
5;484
6;479
7;478
8;476
9;480
10;489
11;490
12;494
13;496
14;495
15;498
0;501
1;502
2;500
3;496
4;486
5;478
6;493
7;502
8;488
9;485
10;488
11;495
12;499
13;513
14;526
15;525
0;516
1;504
2;492
3;482
4;473
5;466
6;466
7;469
8;474
9;478
10;486
11;492
12;501
13;508
14;508
15;512
0;524
1;536
2;541
3;542
4;545
5;549
6;559
7;577
8;587
9;581
10;575
11;569
12;556
13;549
14;551
15;549
0;540
1;530
2;519
3;512
4;505
5;494
6;471
7;449
8;427
9;396
10;367
11;345
12;326
13;312
14;308
15;312
0;324
1;337
2;345
3;357
4;371
5;387
6;398
7;407
8;412
9;420
10;421
11;418
12;423
13;430
14;443
15;459
0;466
1;470
2;474
3;482
4;496
5;509
6;519
7;531
8;537
9;533
10;527
11;520
12;510
13;500
14;502
15;510
0;518
1;524
2;527
3;529
4;532
5;531
6;527
7;528
8;531
9;528
10;525
11;525
12;525
13;522
14;519
15;520
0;525
1;528
2;528
3;531
4;538
5;543
6;546
7;549
8;547
9;542
10;537
11;540
12;541
13;543
14;550
15;545
0;536
1;540
2;547
3;551
4;563
5;567
6;558
7;547
8;544
9;542
10;535
11;528
12;518
13;511
14;511
15;519
0;530
1;537
2;540
3;542
4;545
5;550
6;552
7;553
8;557
9;556
10;561
11;569
12;575
13;585
14;588
15;590
0;588
1;582
2;582
3;580
4;583
5;580
6;573
7;574
8;573
9;577
10;576
11;572
12;572
13;575
14;581
15;585
0;578
1;575
2;583
3;591
4;593
5;592
6;596
7;598
8;599
9;601
10;600
11;596
12;591
13;584
14;576
15;569
0;555
1;541
2;538
3;539
4;542
5;546
6;550
7;554
8;553
9;556
10;556
11;554
12;554
13;552
14;548
15;544
0;536
1;525
2;512
3;510
4;510
5;511
6;514
7;514
8;516
9;517
10;508
11;499
12;495
13;492
14;492
15;494
0;496
1;499
2;502
3;502
4;504
5;505
6;509
7;515
8;519
9;527
10;535
11;543
12;546
13;534
14;518
15;499
0;487
1;480
2;474
3;478
4;484
5;487
6;490
7;495
8;496
9;497
10;499
11;507
12;520
13;533
14;543
15;540
0;524
1;499
2;484
3;474
4;466
5;462
6;472
7;485
8;494
9;495
10;495
11;503
12;510
13;509
14;506
15;508
0;512
1;514
2;514
3;515
4;512
5;521
6;525
7;508
8;480
9;459
10;458
11;463
12;468
13;469
14;468
15;468
0;467
1;466
2;466
3;469
4;473
5;477
6;489
7;503
8;515
9;523
10;529
11;519
12;499
13;476
14;466
15;457
0;454
1;455
2;460
3;469
4;476
5;484
6;493
7;514
8;534
9;531
10;515
11;501
12;491
13;482
14;475
15;469
0;468
1;465
2;464
3;463
4;461
5;453
6;452
7;458
8;463
9;471
10;476
11;472
12;469
13;471
14;477
15;484
0;490
1;493
2;495
3;499
4;504
5;510
6;517
7;512
8;489
9;466
10;467
11;476
12;480
13;483
14;476
15;468
0;466
1;470
2;478
3;489
4;501
5;511
6;512
7;506
8;486
9;475
10;468
11;469
12;475
13;486
14;502
15;520
0;531
1;540
2;542
3;554
4;569
5;580
6;589
7;599
8;607
9;607
10;602
11;600
12;603
13;604
14;599
15;577
0;552
1;533
2;511
3;488
4;460
5;427
6;395
7;368
8;349
9;339
10;326
11;319
12;323
13;329
14;334
15;342
0;352
1;359
2;373
3;383
4;379
5;370
6;375
7;385
8;397
9;416
10;443
11;455
12;459
13;460
14;461
15;462
0;468
1;471
2;469
3;473
4;478
5;481
6;480
7;468
8;470
9;479
10;484
11;492
12;496
13;504
14;508
15;513
0;523
1;527
2;528
3;526
4;524
5;524
6;527
7;531
8;534
9;535
10;541
11;547
12;549
13;554
14;556
15;558
0;564
1;568
2;565
3;562
4;560
5;558
6;554
7;545
8;542
9;547
10;557
11;556
12;552
13;551
14;557
15;559
0;555
1;558
2;558
3;554
4;563
5;587
6;598
7;593
8;595
9;588
10;557
11;527
12;518
13;517
14;533
15;552
0;567
1;577
2;582
3;580
4;576
5;573
6;567
7;559
8;558
9;564
10;563
11;553
12;543
13;544
14;554
15;561
0;571
1;577
2;589
3;602
4;604
5;599
6;587
7;575
8;568
9;566
10;570
11;575
12;575
13;577
14;584
15;590
0;594
1;595
2;597
3;599
4;596
5;595
6;594
7;595
8;596
9;599
10;599
11;603
12;605
13;599
14;583
15;574
0;566
1;558
2;560
3;568
4;577
5;579
6;584
7;587
8;583
9;585
10;586
11;588
12;577
13;556
14;536
15;526
0;525
1;525
2;520
3;521
4;524
5;522
6;522
7;523
8;522
9;517
10;512
11;512
12;512
13;508
14;504
15;502
0;502
1;504
2;507
3;512
4;516
5;524
6;529
7;531
8;533
9;534
10;529
11;523
12;516
13;517
14;515
15;498
0;478
1;480
2;491
3;490
4;491
5;497
6;500
7;495
8;496
9;502
10;506
11;510
12;513
13;511
14;512
15;515
0;513
1;505
2;499
3;509
4;519
5;522
6;505
7;495
8;493
9;492
10;496
11;503
12;514
13;518
14;516
15;513
0;503
1;499
2;502
3;502
4;504
5;511
6;514
7;508
8;503
9;501
10;497
11;497
12;493
13;487
14;483
15;470
0;448
1;430
2;432
3;453
4;488
5;515
6;515
7;508
8;510
9;510
10;505
11;504
12;506
13;511
14;511
15;509
0;505
1;510
2;512
3;504
4;499
5;490
6;473
7;467
8;474
9;479
10;481
11;476
12;473
13;465
14;460
15;464
0;465
1;460
2;454
3;453
4;459
5;465
6;467
7;469
8;471
9;475
10;479
11;480
12;479
13;481
14;484
15;488
0;490
1;494
2;497
3;497
4;498
5;500
6;496
7;497
8;496
9;495
10;497
11;498
12;497
13;497
14;495
15;495
0;496
1;498
2;498
3;502
4;509
5;508
6;506
7;515
8;528
9;537
10;535
11;525
12;503
13;479
14;465
15;470
0;489
1;515
2;534
3;549
4;555
5;566
6;579
7;588
8;600
9;607
10;611
11;611
12;606
13;600
14;601
15;604
0;610
1;595
2;555
3;513
4;489
5;475
6;460
7;440
8;423
9;405
10;399
11;392
12;381
13;370
14;364
15;354
0;347
1;346
2;352
3;364
4;379
5;396
6;406
7;405
8;407
9;420
10;441
11;462
12;474
13;478
14;479
15;469
0;463
1;461
2;457
3;460
4;472
5;478
6;483
7;488
8;492
9;492
10;488
11;495
12;503
13;510
14;508
15;504
0;508
1;512
2;512
3;504
4;504
5;503
6;504
7;515
8;528
9;536
10;546
11;550
12;550
13;547
14;541
15;546
0;553
1;557
2;556
3;559
4;556
5;554
6;553
7;544
8;536
9;533
10;535
11;532
12;531
13;531
14;531
15;526
0;525
1;527
2;530
3;533
4;544
5;550
6;549
7;547
8;550
9;553
10;556
11;558
12;561
13;563
14;561
15;556
0;547
1;537
2;537
3;560
4;577
5;577
6;574
7;577
8;590
9;584
10;570
11;566
12;565
13;561
14;562
15;567
0;571
1;591
2;601
3;604
4;600
5;585
6;574
7;576
8;581
9;583
10;583
11;574
12;564
13;557
14;556
15;563
0;573
1;583
2;590
3;589
4;583
5;580
6;574
7;567
8;561
9;561
10;559
11;563
12;564
13;561
14;556
15;552
0;560
1;568
2;571
3;574
4;577
5;572
6;569
7;575
8;576
9;568
10;563
11;554
12;545
13;541
14;539
15;541
0;541
1;536
2;536
3;541
4;536
5;528
6;525
7;527
8;528
9;524
10;515
11;510
12;507
13;507
14;508
15;512
0;509
1;508
2;510
3;516
4;527
5;537
6;534
7;524
8;510
9;499
10;496
11;503
12;508
13;510
14;515
15;516
0;508
1;511
2;508
3;510
4;528
5;542
6;537
7;526
8;505
9;486
10;481
11;486
12;485
13;482
14;480
15;479
0;477
1;480
2;483
3;495
4;505
5;511
6;515
7;511
8;499
9;489
10;489
11;492
12;493
13;496
14;504
15;508
0;505
1;504
2;509
3;511
4;519
5;522
6;513
7;508
8;500
9;495
10;491
11;487
12;482
13;477
14;477
15;474
0;473
1;474
2;476
3;473
4;475
5;481
6;486
7;489
8;489
9;494
10;500
11;502
12;499
13;491
14;481
15;484
0;487
1;488
2;484
3;487
4;488
5;480
6;473
7;467
8;462
9;460
10;464
11;467
12;468
13;477
14;472
15;478
0;494
1;511
2;524
3;527
4;527
5;532
6;529
7;516
8;508
9;500
10;503
11;507
12;502
13;499
14;492
15;491
0;494
1;496
2;492
3;487
4;491
5;496
6;500
7;507
8;507
9;502
10;498
11;495
12;497
13;497
14;493
15;488
0;480
1;478
2;482
3;483
4;482
5;488
6;496
7;497
8;495
9;491
10;496
11;500
12;500
13;501
14;504
15;507
0;510
1;514
2;518
3;525
4;531
5;539
6;553
7;570
8;588
9;599
10;604
11;599
12;593
13;585
14;577
15;555
0;534
1;531
2;525
3;513
4;502
5;491
6;475
7;467
8;451
9;423
10;403
11;393
12;387
13;383
14;388
15;399
0;403
1;401
2;401
3;404
4;409
5;413
6;423
7;437
8;435
9;434
10;430
11;428
12;424
13;427
14;446
15;459
0;458
1;451
2;448
3;450
4;457
5;461
6;469
7;476
8;478
9;483
10;488
11;493
12;493
13;501
14;509
15;509
0;510
1;511
2;520
3;536
4;548
5;543
6;533
7;527
8;522
9;523
10;529
11;531
12;525
13;519
14;517
15;512
0;512
1;519
2;526
3;533
4;534
5;530
6;537
7;547
8;556
9;557
10;554
11;546
12;536
13;531
14;532
15;532
0;529
1;527
2;520
3;518
4;525
5;524
6;523
7;514
8;513
9;523
10;528
11;531
12;538
13;543
14;540
15;542
0;547
1;547
2;546
3;542
4;540
5;541
6;542
7;541
8;543
9;545
10;545
11;541
12;541
13;538
14;541
15;560
0;588
1;601
2;606
3;605
4;593
5;581
6;576
7;568
8;567
9;568
10;556
11;551
12;561
13;564
14;560
15;561
0;565
1;575
2;590
3;608
4;603
5;590
6;571
7;554
8;549
9;549
10;544
11;538
12;534
13;539
14;538
15;535
0;536
1;535
2;541
3;558
4;567
5;563
6;559
7;555
8;550
9;545
10;544
11;545
12;542
13;545
14;544
15;543
0;543
1;544
2;539
3;531
4;520
5;504
6;497
7;500
8;504
9;507
10;511
11;513
12;508
13;507
14;508
15;510
0;512
1;515
2;516
3;516
4;512
5;508
6;503
7;503
8;501
9;501
10;504
11;506
12;508
13;515
14;519
15;523
0;524
1;513
2;506
3;507
4;508
5;509
6;524
7;544
8;553
9;543
10;527
11;515
12;501
13;476
14;471
15;477
0;494
1;513
2;529
3;543
4;550
5;534
6;519
7;504
8;494
9;491
10;485
11;483
12;481
13;482
14;490
15;499
0;503
1;508
2;507
3;499
4;494
5;492
6;493
7;492
8;489
9;485
10;482
11;484
12;487
13;485
14;481
15;479
0;483
1;488
2;495
3;496
4;493
5;491
6;496
7;503
8;496
9;487
10;487
11;489
12;489
13;488
14;481
15;480
0;487
1;489
2;487
3;490
4;494
5;498
6;504
7;507
8;506
9;503
10;501
11;488
12;482
13;483
14;479
15;468
0;463
1;480
2;502
3;513
4;510
5;505
6;503
7;502
8;498
9;487
10;484
11;483
12;480
13;484
14;487
15;480
0;480
1;487
2;483
3;476
4;472
5;472
6;478
7;483
8;492
9;491
10;477
11;473
12;476
13;479
14;488
15;494
0;494
1;494
2;495
3;495
4;494
5;490
6;487
7;482
8;480
9;478
10;477
11;483
12;489
13;497
14;503
15;502
0;512
1;523
2;529
3;535
4;542
5;549
6;560
7;564
8;568
9;584
10;597
11;606
12;606
13;603
14;588
15;583
0;587
1;579
2;555
3;538
4;525
5;513
6;497
7;487
8;481
9;459
10;429
11;408
12;396
13;381
14;361
15;345
0;339
1;340
2;335
3;337
4;350
5;368
6;388
7;402
8;405
9;406
10;410
11;420
12;432
13;438
14;442
15;447
0;452
1;460
2;461
3;460
4;463
5;467
6;466
7;470
8;480
9;491
10;500
11;505
12;509
13;509
14;511
15;507
0;506
1;503
2;504
3;506
4;513
5;514
6;515
7;519
8;519
9;524
10;524
11;523
12;523
13;520
14;519
15;517
0;520
1;524
2;523
3;525
4;526
5;525
6;523
7;524
8;529
9;551
10;581
11;590
12;577
13;563
14;554
15;552
0;552
1;544
2;531
3;523
4;515
5;511
6;520
7;533
8;545
9;551
10;543
11;536
12;527
13;517
14;513
15;511
0;508
1;512
2;516
3;517
4;516
5;515
6;511
7;518
8;527
9;534
10;539
11;543
12;547
13;547
14;551
15;554
0;553
1;550
2;551
3;550
4;544
5;541
6;542
7;545
8;548
9;550
10;553
11;555
12;559
13;561
14;566
15;570
0;567
1;564
2;561
3;557
4;557
5;560
6;558
7;554
8;552
9;551
10;551
11;552
12;552
13;553
14;557
15;559
0;559
1;559
2;564
3;568
4;564
5;558
6;546
7;539
8;530
9;528
10;524
11;519
12;514
13;506
14;509
15;518
0;519
1;518
2;528
3;528
4;522
5;518
6;509
7;508
8;513
9;519
10;528
11;520
12;517
13;524
14;528
15;524
0;519
1;506
2;491
3;480
4;476
5;476
6;479
7;483
8;487
9;487
10;486
11;484
12;487
13;486
14;484
15;484
0;485
1;484
2;484
3;486
4;491
5;490
6;485
7;484
8;488
9;488
10;489
11;493
12;496
13;493
14;491
15;491
0;491
1;492
2;490
3;486
4;482
5;477
6;470
7;468
8;470
9;472
10;478
11;485
12;485
13;485
14;481
15;482
0;483
1;482
2;486
3;495
4;499
5;498
6;497
7;497
8;502
9;508
10;499
11;491
12;486
13;474
14;465
15;459
0;462
1;463
2;463
3;467
4;475
5;479
6;482
7;491
8;494
9;495
10;496
11;493
12;491
13;489
14;486
15;474
0;466
1;466
2;459
3;454
4;463
5;472
6;478
7;484
8;486
9;482
10;477
11;478
12;479
13;475
14;466
15;459
0;456
1;453
2;457
3;452
4;456
5;469
6;470
7;472
8;477
9;476
10;471
11;471
12;480
13;488
14;484
15;483
0;483
1;481
2;481
3;482
4;480
5;475
6;476
7;480
8;477
9;479
10;483
11;484
12;488
13;494
14;492
15;487
0;490
1;500
2;511
3;520
4;520
5;502
6;491
7;480
8;467
9;457
10;455
11;453
12;453
13;457
14;457
15;463
0;478
1;492
2;498
3;503
4;508
5;518
6;532
7;542
8;557
9;575
10;586
11;592
12;601
13;614
14;612
15;594
0;579
1;562
2;547
3;534
4;524
5;520
6;514
7;500
8;481
9;462
10;441
11;417
12;387
13;359
14;341
15;328
0;323
1;323
2;326
3;329
4;337
5;344
6;352
7;365
8;375
9;382
10;387
11;393
12;403
13;417
14;430
15;443
0;450
1;464
2;471
3;478
4;479
5;478
6;488
7;496
8;500
9;503
10;491
11;474
12;465
13;466
14;471
15;479
0;487
1;496
2;501
3;507
4;518
5;528
6;536
7;537
8;536
9;537
10;544
11;548
12;547
13;546
14;544
15;544
0;546
1;547
2;541
3;534
4;539
5;553
6;560
7;553
8;553
9;551
10;550
11;549
12;552
13;551
14;547
15;543
0;542
1;546
2;560
3;581
4;590
5;584
6;576
7;573
8;570
9;563
10;553
11;551
12;558
13;561
14;559
15;555
0;548
1;543
2;542
3;548
4;555
5;572
6;591
7;600
8;596
9;581
10;558
11;536
12;521
13;524
14;526
15;529
0;536
1;537
2;541
3;546
4;542
5;536
6;540
7;554
8;568
9;572
10;570
11;572
12;575
13;574
14;571
15;572
0;572
1;572
2;575
3;574
4;577
5;579
6;589
7;597
8;603
9;612
10;616
11;612
12;605
13;601
14;599
15;591
0;580
1;567
2;559
3;552
4;543
5;543
6;559
7;580
8;591
9;592
10;588
11;579
12;571
13;560
14;551
15;562
0;578
1;590
2;593
3;583
4;575
5;568
6;566
7;560
8;557
9;559
10;568
11;571
12;567
13;559
14;536
15;509
0;490
1;487
2;484
3;486
4;495
5;508
6;519
7;518
8;503
9;484
10;477
11;476
12;481
13;494
14;504
15;514
0;519
1;518
2;518
3;518
4;514
5;507
6;504
7;508
8;515
9;521
10;526
11;531
12;528
13;511
14;499
15;494
0;483
1;472
2;467
3;485
4;507
5;523
6;528
7;527
8;522
9;514
10;508
11;506
12;510
13;515
14;520
15;520
0;517
1;515
2;517
3;521
4;526
5;529
6;531
7;530
8;519
9;498
10;486
11;483
12;489
13;506
14;518
15;529
0;529
1;522
2;512
3;504
4;510
5;522
6;529
7;525
8;511
9;494
10;467
11;439
12;435
13;449
14;462
15;470
0;476
1;484
2;489
3;493
4;495
5;496
6;488
7;471
8;463
9;463
10;472
11;483
12;484
13;484
14;492
15;499
0;501
1;501
2;500
3;489
4;483
5;479
6;476
7;475
8;481
9;484
10;478
11;474
12;478
13;484
14;492
15;499
0;502
1;510
2;517
3;515
4;507
5;501
6;504
7;501
8;502
9;506
10;512
11;512
12;506
13;497
14;491
15;491
0;496
1;509
2;522
3;528
4;535
5;536
6;529
7;526
8;527
9;505
10;468
11;440
12;430
13;430
14;433
15;445
0;465
1;488
2;507
3;530
4;554
5;562
6;558
7;556
8;558
9;567
10;579
11;593
12;610
13;613
14;607
15;595
0;574
1;557
2;561
3;570
4;574
5;569
6;555
7;534
8;512
9;507
10;509
11;502
12;486
13;471
14;448
15;413
0;377
1;352
2;324
3;292
4;269
5;267
6;278
7;298
8;317
9;338
10;357
11;374
12;387
13;405
14;415
15;424
0;441
1;447
2;439
3;432
4;426
5;422
6;427
7;444
8;451
9;453
10;472
11;494
12;511
13;517
14;521
15;512
0;508
1;510
2;520
3;531
4;539
5;542
6;541
7;547
8;551
9;538
10;528
11;532
12;544
13;549
14;550
15;548
0;545
1;544
2;550
3;555
4;557
5;555
6;553
7;551
8;550
9;547
10;538
11;533
12;539
13;551
14;554
15;550
0;537
1;528
2;525
3;519
4;521
5;535
6;542
7;551
8;558
9;558
10;558
11;558
12;568
13;586
14;586
15;576
0;560
1;555
2;558
3;560
4;557
5;549
6;547
7;548
8;546
9;542
10;540
11;543
12;550
13;556
14;567
15;585
0;592
1;590
2;588
3;584
4;577
5;571
6;569
7;571
8;573
9;576
10;576
11;577
12;584
13;587
14;581
15;570
0;569
1;575
2;582
3;583
4;592
5;591
6;590
7;584
8;568
9;551
10;547
11;557
12;567
13;570
14;574
15;580
0;587
1;591
2;588
3;575
4;565
5;561
6;559
7;558
8;556
9;558
10;567
11;578
12;582
13;577
14;581
15;579
0;578
1;574
2;569
3;563
4;546
5;526
6;518
7;512
8;507
9;505
10;506
11;505
12;507
13;513
14;526
15;532
0;539
1;544
2;534
3;518
4;503
5;488
6;493
7;511
8;521
9;522
10;514
11;505
12;495
13;487
14;489
15;491
0;490
1;492
2;496
3;496
4;489
5;478
6;476
7;479
8;479
9;475
10;476
11;484
12;492
13;496
14;498
15;507
0;498
1;473
2;457
3;457
4;465
5;467
6;471
7;471
8;472
9;473
10;479
11;483
12;486
13;487
14;483
15;479
0;480
1;485
2;487
3;488
4;485
5;483
6;479
7;479
8;484
9;486
10;481
11;476
12;490
13;502
14;492
15;474
0;475
1;485
2;490
3;489
4;484
5;473
6;459
7;452
8;451
9;454
10;455
11;457
12;457
13;454
14;460
15;463
0;463
1;470
2;479
3;485
4;483
5;476
6;475
7;473
8;472
9;470
10;469
11;473
12;476
13;473
14;470
15;470
0;470
1;470
2;468
3;471
4;478
5;489
6;493
7;489
8;491
9;493
10;496
11;500
12;500
13;491
14;485
15;489
0;487
1;479
2;470
3;468
4;472
5;488
6;506
7;514
8;512
9;496
10;477
11;466
12;459
13;460
14;456
15;441
0;436
1;445
2;451
3;459
4;470
5;472
6;469
7;465
8;460
9;454
10;447
11;443
12;448
13;461
14;480
15;494
0;504
1;520
2;527
3;522
4;518
5;523
6;536
7;552
8;577
9;597
10;603
11;610
12;614
13;617
14;617
15;610
0;599
1;585
2;571
3;555
4;542
5;530
6;516
7;498
8;480
9;453
10;417
11;389
12;368
13;351
14;338
15;329
0;323
1;311
2;295
3;289
4;293
5;310
6;329
7;341
8;348
9;359
10;361
11;365
12;372
13;380
14;394
15;404
0;417
1;427
2;436
3;448
4;458
5;463
6;473
7;486
8;485
9;474
10;474
11;482
12;493
13;499
14;497
15;507
0;519
1;531
2;532
3;538
4;548
5;555
6;555
7;545
8;540
9;532
10;522
11;519
12;523
13;536
14;547
15;557
0;558
1;555
2;549
3;542
4;542
5;545
6;548
7;550
8;547
9;545
10;547
11;550
12;557
13;556
14;547
15;538
0;537
1;542
2;550
3;554
4;552
5;542
6;540
7;545
8;551
9;553
10;547
11;539
12;540
13;547
14;548
15;553
0;559
1;567
2;576
3;582
4;587
5;577
6;559
7;543
8;536
9;536
10;541
11;550
12;558
13;563
14;567
15;570
0;573
1;579
2;582
3;588
4;599
5;604
6;598
7;600
8;607
9;613
10;615
11;609
12;597
13;593
14;597
15;596
0;596
1;600
2;597
3;592
4;592
5;598
6;603
7;606
8;605
9;599
10;592
11;596
12;606
13;616
14;619
15;611
0;601
1;596
2;600
3;599
4;590
5;582
6;581
7;574
8;568
9;564
10;555
11;543
12;530
13;526
14;531
15;541
0;542
1;543
2;545
3;543
4;542
5;542
6;547
7;556
8;560
9;548
10;526
11;506
12;496
13;496
14;505
15;517
0;527
1;527
2;526
3;526
4;521
5;510
6;499
7;496
8;497
9;495
10;495
11;494
12;495
13;497
14;499
15;500
0;499
1;493
2;489
3;491
4;497
5;503
6;507
7;510
8;512
9;520
10;528
11;525
12;519
13;510
14;488
15;473
0;463
1;465
2;481
3;498
4;506
5;508
6;507
7;504
8;497
9;486
10;478
11;480
12;489
13;498
14;508
15;519
0;527
1;528
2;527
3;522
4;510
5;487
6;461
7;452
8;459
9;472
10;479
11;488
12;494
13;498
14;492
15;477
0;464
1;458
2;460
3;464
4;468
5;471
6;472
7;473
8;473
9;474
10;476
11;479
12;481
13;481
14;480
15;480
0;479
1;479
2;481
3;483
4;490
5;501
6;513
7;524
8;526
9;525
10;506
11;485
12;463
13;456
14;463
15;467
0;475
1;484
2;487
3;486
4;481
5;481
6;475
7;468
8;468
9;471
10;475
11;487
12;510
13;513
14;515
15;510
0;497
1;486
2;470
3;450
4;439
5;441
6;451
7;460
8;456
9;447
10;445
11;447
12;449
13;451
14;454
15;457
0;465
1;476
2;489
3;496
4;499
5;498
6;495
7;496
8;494
9;488
10;483
11;483
12;484
13;485
14;485
15;485
0;489
1;495
2;501
3;508
4;515
5;521
6;528
7;538
8;549
9;565
10;579
11;591
12;605
13;610
14;605
15;600
0;595
1;591
2;583
3;573
4;564
5;557
6;548
7;545
8;544
9;532
10;519
11;492
12;444
13;399
14;360
15;334
0;323
1;315
2;305
3;303
4;304
5;314
6;323
7;338
8;355
9;370
10;386
11;392
12;406
13;423
14;427
15;420
0;415
1;410
2;405
3;409
4;419
5;433
6;443
7;455
8;467
9;467
10;464
11;469
12;478
13;487
14;495
15;496
0;495
1;497
2;506
3;514
4;517
5;522
6;526
7;528
8;529
9;530
10;532
11;532
12;534
13;537
14;545
15;553
0;559
1;566
2;569
3;561
4;550
5;548
6;554
7;559
8;557
9;551
10;541
11;533
12;538
13;550
14;568
15;576
0;576
1;563
2;551
3;562
4;572
5;557
6;535
7;534
8;544
9;537
10;524
11;510
12;502
13;505
14;519
15;538
0;553
1;564
2;562
3;562
4;563
5;555
6;547
7;544
8;544
9;546
10;549
11;555
12;559
13;563
14;559
15;551
0;544
1;549
2;552
3;551
4;553
5;554
6;551
7;556
8;568
9;572
10;574
11;582
12;597
13;608
14;622
15;620
0;611
1;604
2;601
3;599
4;590
5;581
6;575
7;573
8;578
9;590
10;591
11;589
12;569
13;556
14;571
15;591
0;601
1;589
2;579
3;577
4;574
5;567
6;560
7;550
8;543
9;542
10;547
11;553
12;551
13;547
14;540
15;539
0;537
1;530
2;524
3;526
4;533
5;530
6;526
7;530
8;529
9;528
10;529
11;532
12;531
13;527
14;521
15;516
0;515
1;517
2;511
3;504
4;498
5;498
6;494
7;493
8;500
9;503
10;496
11;488
12;480
13;476
14;481
15;483
0;492
1;508
2;517
3;520
4;520
5;518
6;518
7;513
8;498
9;482
10;477
11;481
12;481
13;490
14;508
15;520
0;527
1;525
2;524
3;519
4;506
5;492
6;482
7;477
8;473
9;470
10;469
11;470
12;472
13;474
14;480
15;486
0;488
1;490
2;495
3;500
4;504
5;510
6;510
7;501
8;498
9;498
10;498
11;500
12;503
13;498
14;500
15;505
0;504
1;499
2;495
3;495
4;494
5;491
6;490
7;489
8;485
9;480
10;481
11;481
12;481
13;482
14;487
15;499
0;515
1;537
2;552
3;553
4;531
5;513
6;493
7;479
8;475
9;470
10;455
11;436
12;422
13;413
14;415
15;420
0;435
1;462
2;484
3;492
4;493
5;490
6;484
7;486
8;484
9;476
10;475
11;476
12;481
13;490
14;507
15;515
0;513
1;506
2;497
3;485
4;479
5;478
6;477
7;482
8;487
9;487
10;487
11;487
12;486
13;487
14;487
15;486
0;485
1;484
2;479
3;480
4;487
5;505
6;524
7;541
8;550
9;538
10;524
11;497
12;479
13;472
14;468
15;454
0;457
1;464
2;468
3;474
4;482
5;494
6;501
7;504
8;504
9;508
10;525
11;551
12;570
13;583
14;595
15;606
0;620
1;631
2;634
3;623
4;599
5;573
6;556
7;548
8;548
9;550
10;537
11;516
12;497
13;478
14;454
15;427
0;399
1;375
2;358
3;344
4;339
5;349
6;357
7;372
8;391
9;411
10;415
11;417
12;418
13;416
14;412
15;404
0;395
1;399
2;408
3;423
4;432
5;437
6;439
7;435
8;429
9;433
10;449
11;466
12;476
13;481
14;493
15;504
0;510
1;503
2;488
3;481
4;487
5;502
6;519
7;529
8;527
9;523
10;525
11;524
12;522
13;521
14;519
15;518
0;515
1;510
2;513
3;513
4;512
5;512
6;518
7;523
8;526
9;528
10;534
11;539
12;530
13;525
14;528
15;531
0;537
1;546
2;558
3;569
4;574
5;577
6;575
7;557
8;529
9;512
10;515
11;524
12;530
13;524
14;520
15;523
0;529
1;535
2;544
3;542
4;539
5;528
6;514
7;515
8;522
9;527
10;532
11;546
12;558
13;566
14;563
15;553
0;548
1;545
2;543
3;543
4;544
5;543
6;544
7;548
8;547
9;548
10;551
11;560
12;571
13;574
14;576
15;576
0;586
1;592
2;595
3;599
4;588
5;568
6;567
7;581
8;592
9;608
10;615
11;611
12;606
13;599
14;596
15;596
0;600
1;604
2;607
3;600
4;588
5;562
6;541
7;520
8;510
9;505
10;505
11;512
12;521
13;524
14;535
15;556
0;560
1;553
2;549
3;547
4;540
5;529
6;530
7;535
8;539
9;539
10;537
11;536
12;539
13;542
14;539
15;536
0;531
1;520
2;512
3;506
4;504
5;506
6;508
7;512
8;517
9;519
10;517
11;507
12;494
13;487
14;487
15;496
0;504
1;504
2;500
3;497
4;487
5;483
6;484
7;489
8;496
9;499
10;495
11;495
12;502
13;505
14;512
15;525
0;527
1;516
2;494
3;477
4;470
5;477
6;488
7;493
8;497
9;504
10;507
11;513
12;542
13;568
14;579
15;558
0;525
1;506
2;497
3;495
4;494
5;495
6;498
7;493
8;491
9;494
10;496
11;498
12;494
13;493
14;489
15;489
0;495
1;497
2;496
3;501
4;502
5;505
6;507
7;507
8;500
9;486
10;469
11;460
12;457
13;458
14;464
15;473
0;479
1;483
2;489
3;489
4;486
5;482
6;480
7;478
8;478
9;480
10;481
11;478
12;479
13;480
14;490
15;503
0;509
1;505
2;508
3;504
4;487
5;473
6;479
7;490
8;497
9;499
10;486
11;464
12;457
13;462
14;465
15;464
0;468
1;473
2;472
3;478
4;477
5;470
6;467
7;464
8;463
9;466
10;476
11;483
12;482
13;479
14;492
15;504
0;517
1;516
2;508
3;508
4;505
5;487
6;473
7;474
8;480
9;483
10;487
11;488
12;487
13;490
14;495
15;496
0;501
1;509
2;506
3;499
4;494
5;488
6;486
7;490
8;499
9;508
10;521
11;531
12;541
13;552
14;559
15;563
0;572
1;581
2;585
3;606
4;623
5;615
6;604
7;588
8;566
9;553
10;552
11;548
12;540
13;535
14;536
15;520
0;496
1;481
2;459
3;430
4;405
5;383
6;375
7;386
8;384
9;364
10;356
11;364
12;380
13;389
14;385
15;370
0;370
1;387
2;396
3;402
4;419
5;429
6;440
7;449
8;455
9;460
10;464
11;466
12;464
13;462
14;466
15;470
0;471
1;477
2;479
3;482
4;487
5;499
6;500
7;502
8;503
9;495
10;492
11;485
12;485
13;492
14;495
15;495
0;498
1;505
2;516
3;524
4;527
5;529
6;536
7;540
8;539
9;539
10;544
11;550
12;551
13;554
14;547
15;535
0;530
1;528
2;524
3;523
4;523
5;518
6;519
7;521
8;529
9;536
10;546
11;549
12;554
13;567
14;575
15;579
0;572
1;548
2;529
3;512
4;493
5;481
6;483
7;492
8;496
9;501
10;504
11;508
12;511
13;522
14;541
15;551
0;546
1;538
2;535
3;541
4;539
5;539
6;539
7;540
8;544
9;546
10;550
11;559
12;561
13;556
14;550
15;547
0;552
1;552
2;553
3;552
4;546
5;544
6;545
7;549
8;550
9;558
10;569
11;577
12;583
13;582
14;566
15;556
0;550
1;544
2;540
3;538
4;536
5;535
6;534
7;538
8;538
9;540
10;541
11;541
12;544
13;552
14;558
15;559
0;555
1;545
2;543
3;546
4;549
5;554
6;556
7;548
8;530
9;518
10;509
11;501
12;506
13;515
14;519
15;513
0;506
1;504
2;504
3;499
4;495
5;495
6;497
7;495
8;492
9;495
10;503
11;516
12;504
13;484
14;474
15;475
0;481
1;495
2;515
3;523
4;518
5;504
6;494
7;492
8;493
9;494
10;497
11;506
12;519
13;520
14;520
15;519
0;518
1;515
2;515
3;502
4;489
5;485
6;488
7;495
8;507
9;512
10;519
11;518
12;508
13;496
14;489
15;489
0;494
1;498
2;498
3;499
4;499
5;499
6;503
7;505
8;510
9;514
10;512
11;507
12;505
13;509
14;516
15;522
0;524
1;520
2;516
3;519
4;517
5;519
6;518
7;501
8;484
9;481
10;475
11;466
12;467
13;470
14;466
15;462
0;465
1;467
2;475
3;483
4;487
5;486
6;481
7;483
8;494
9;496
10;494
11;502
12;515
13;524
14;512
15;496
0;488
1;487
2;483
3;481
4;487
5;492
6;496
7;511
8;526
9;530
10;525
11;517
12;508
13;503
14;496
15;495
0;498
1;502
2;504
3;506
4;498
5;491
6;483
7;467
8;453
9;452
10;462
11;471
12;474
13;474
14;477
15;479
0;487
1;494
2;492
3;488
4;482
5;474
6;476
7;483
8;483
9;488
10;493
11;494
12;501
13;497
14;495
15;490
0;483
1;479
2;482
3;488
4;495
5;507
6;514
7;516
8;520
9;524
10;511
11;489
12;476
13;477
14;488
15;492
0;510
1;530
2;547
3;559
4;567
5;576
6;585
7;587
8;583
9;581
10;583
11;583
12;576
13;564
14;547
15;526
0;511
1;508
2;509
3;507
4;498
5;476
6;447
7;411
8;384
9;368
10;355
11;345
12;340
13;339
14;339
15;344
0;354
1;363
2;374
3;387
4;399
5;406
6;411
7;416
8;431
9;451
10;477
11;500
12;497
13;481
14;467
15;462
0;466
1;465
2;464
3;469
4;480
5;493
6;503
7;508
8;510
9;511
10;512
11;511
12;515
13;521
14;530
15;538
0;537
1;535
2;541
3;547
4;545
5;546
6;551
7;559
8;566
9;566
10;561
11;528
12;510
13;511
14;514
15;516
0;510
1;508
2;518
3;527
4;534
5;538
6;536
7;532
8;533
9;532
10;532
11;535
12;535
13;538
14;552
15;570
0;583
1;581
2;568
3;560
4;560
5;557
6;562
7;576
8;583
9;583
10;587
11;587
12;580
13;579
14;570
15;565
0;567
1;569
2;570
3;570
4;566
5;563
6;563
7;563
8;563
9;567
10;570
11;573
12;577
13;576
14;573
15;568
0;566
1;566
2;568
3;570
4;572
5;575
6;582
7;594
8;603
9;606
10;601
11;594
12;587
13;589
14;585
15;580
0;586
1;590
2;584
3;579
4;568
5;568
6;568
7;559
8;549
9;550
10;550
11;550
12;555
13;562
14;560
15;550
0;545
1;551
2;560
3;568
4;576
5;574
6;567
7;564
8;562
9;556
10;544
11;541
12;545
13;546
14;546
15;545
0;539
1;539
2;544
3;550
4;554
5;549
6;542
7;538
8;537
9;536
10;532
11;527
12;522
13;513
14;507
15;512
0;522
1;525
2;523
3;517
4;512
5;509
6;512
7;516
8;519
9;517
10;518
11;530
12;534
13;529
14;529
15;537
0;543
1;547
2;542
3;522
4;498
5;495
6;498
7;500
8;501
9;510
10;516
11;521
12;526
13;531
14;525
15;514
0;511
1;498
2;486
3;492
4;502
5;508
6;505
7;500
8;499
9;492
10;485
11;480
12;478
13;484
14;490
15;492
0;494
1;497
2;495
3;492
4;488
5;490
6;492
7;495
8;500
9;505
10;510
11;515
12;515
13;518
14;515
15;514
0;518
1;522
2;515
3;498
4;489
5;488
6;491
7;490
8;490
9;488
10;483
11;481
12;480
13;480
14;485
15;497
0;502
1;499
2;494
3;486
4;481
5;478
6;476
7;480
8;483
9;483
10;481
11;479
12;479
13;482
14;487
15;490
0;492
1;500
2;502
3;494
4;489
5;497
6;511
7;515
8;506
9;498
10;486
11;464
12;442
13;439
14;446
15;452
0;455
1;459
2;465
3;472
4;478
5;478
6;473
7;476
8;487
9;494
10;495
11;496
12;500
13;502
14;498
15;493
0;498
1;498
2;501
3;505
4;505
5;497
6;490
7;486
8;483
9;481
10;487
11;500
12;519
13;528
14;525
15;523
0;525
1;535
2;549
3;560
4;573
5;581
6;588
7;597
8;602
9;606
10;609
11;609
12;601
13;589
14;579
15;570
0;557
1;543
2;532
3;523
4;519
5;500
6;470
7;438
8;410
9;390
10;377
11;368
12;350
13;331
14;310
15;288
0;288
1;304
2;316
3;326
4;345
5;362
6;376
7;392
8;399
9;403
10;402
11;407
12;412
13;419
14;430
15;441
0;455
1;471
2;487
3;501
4;507
5;503
6;494
7;489
8;487
9;488
10;492
11;498
12;502
13;506
14;513
15;518
0;523
1;528
2;534
3;536
4;536
5;536
6;535
7;533
8;538
9;545
10;550
11;552
12;554
13;553
14;553
15;553
0;559
1;562
2;561
3;561
4;557
5;543
6;534
7;534
8;528
9;524
10;527
11;530
12;537
13;548
14;555
15;558
0;560
1;568
2;578
3;583
4;581
5;575
6;571
7;563
8;555
9;544
10;543
11;548
12;555
13;568
14;568
15;571
0;572
1;568
2;560
3;562
4;563
5;564
6;563
7;564
8;567
9;567
10;572
11;572
12;566
13;568
14;575
15;585
0;594
1;601
2;603
3;605
4;601
5;595
6;593
7;590
8;579
9;575
10;585
11;589
12;596
13;604
14;599
15;589
0;579
1;584
2;586
3;589
4;593
5;597
6;605
7;601
8;589
9;583
10;576
11;572
12;574
13;577
14;578
15;579
0;581
1;582
2;581
3;586
4;593
5;598
6;598
7;600
8;604
9;599
10;581
11;560
12;540
13;534
14;537
15;542
0;541
1;541
2;542
3;551
4;557
5;557
6;558
7;559
8;561
9;558
10;549
11;544
12;541
13;536
14;524
15;516
0;523
1;524
2;511
3;499
4;494
5;489
6;484
7;483
8;489
9;493
10;496
11;497
12;497
13;499
14;499
15;502
0;508
1;508
2;507
3;513
4;524
5;527
6;527
7;526
8;516
9;492
10;475
11;471
12;478
13;487
14;494
15;496
0;492
1;485
2;485
3;489
4;494
5;494
6;502
7;515
8;523
9;522
10;510
11;492
12;485
13;482
14;477
15;472
0;467
1;467
2;471
3;472
4;472
5;476
6;484
7;493
8;498
9;492
10;484
11;491
12;502
13;506
14;504
15;496
0;488
1;475
2;457
3;438
4;433
5;450
6;467
7;472
8;480
9;490
10;495
11;502
12;510
13;510
14;502
15;494
0;485
1;481
2;482
3;483
4;483
5;475
6;469
7;461
8;458
9;466
10;471
11;475
12;478
13;475
14;472
15;467
0;468
1;470
2;470
3;471
4;471
5;466
6;462
7;459
8;466
9;476
10;482
11;491
12;492
13;492
14;494
15;498
0;502
1;506
2;508
3;504
4;494
5;482
6;468
7;452
8;441
9;437
10;440
11;447
12;459
13;470
14;480
15;481
0;481
1;480
2;477
3;470
4;464
5;464
6;465
7;467
8;469
9;470
10;472
11;476
12;479
13;480
14;487
15;504
0;517
1;525
2;535
3;541
4;559
5;575
6;583
7;595
8;609
9;616
10;616
11;619
12;629
13;634
14;633
15;614
0;600
1;591
2;583
3;563
4;526
5;483
6;451
7;420
8;389
9;362
10;333
11;305
12;284
13;277
14;278
15;279
0;278
1;274
2;277
3;290
4;304
5;319
6;332
7;344
8;355
9;367
10;383
11;396
12;404
13;418
14;426
15;428
0;436
1;442
2;449
3;459
4;466
5;473
6;478
7;482
8;487
9;488
10;488
11;493
12;501
13;509
14;515
15;520
0;522
1;520
2;522
3;527
4;529
5;530
6;530
7;521
8;518
9;521
10;524
11;523
12;521
13;523
14;526
15;526
0;524
1;528
2;530
3;531
4;535
5;539
6;539
7;536
8;518
9;504
10;517
11;528
12;532
13;540
14;551
15;558
0;550
1;542
2;537
3;542
4;545
5;547
6;553
7;563
8;573
9;582
10;579
11;568
12;557
13;555
14;552
15;551
0;555
1;557
2;555
3;555
4;556
5;556
6;557
7;562
8;562
9;560
10;568
11;581
12;580
13;579
14;582
15;587
0;590
1;587
2;583
3;584
4;592
5;600
6;615
7;622
8;609
9;595
10;586
11;580
12;572
13;563
14;569
15;584
0;589
1;583
2;580
3;579
4;580
5;578
6;579
7;580
8;581
9;580
10;581
11;581
12;580
13;582
14;583
15;583
0;583
1;583
2;582
3;582
4;583
5;585
6;584
7;583
8;584
9;584
10;574
11;565
12;565
13;567
14;561
15;558
0;558
1;558
2;551
3;545
4;540
5;537
6;536
7;535
8;534
9;536
10;539
11;531
12;515
13;502
14;498
15;492
0;488
1;494
2;499
3;504
4;506
5;510
6;508
7;492
8;486
9;488
10;482
11;476
12;479
13;487
14;491
15;489
0;486
1;480
2;478
3;484
4;496
5;505
6;511
7;513
8;514
9;515
10;510
11;497
12;489
13;495
14;498
15;493
0;494
1;502
2;505
3;500
4;499
5;503
6;506
7;503
8;499
9;498
10;502
11;504
12;499
13;492
14;492
15;491
0;485
1;484
2;487
3;492
4;492
5;496
6;496
7;491
8;489
9;489
10;502
11;514
12;518
13;518
14;512
15;508
0;511
1;516
2;512
3;493
4;467
5;447
6;452
7;455
8;450
9;456
10;464
11;469
12;470
13;463
14;457
15;458
0;464
1;470
2;465
3;460
4;461
5;460
6;465
7;473
8;480
9;483
10;480
11;470
12;455
13;453
14;458
15;461
0;466
1;475
2;485
3;495
4;491
5;487
6;486
7;486
8;485
9;486
10;487
11;489
12;491
13;487
14;483
15;485
0;489
1;490
2;490
3;488
4;490
5;480
6;473
7;463
8;463
9;471
10;483
11;493
12;497
13;498
14;490
15;483
0;481
1;480
2;483
3;498
4;518
5;536
6;547
7;540
8;509
9;463
10;443
11;438
12;444
13;451
14;456
15;460
0;469
1;487
2;499
3;507
4;523
5;544
6;567
7;578
8;584
9;593
10;604
11;615
12;630
13;641
14;644
15;637
0;624
1;607
2;590
3;581
4;572
5;562
6;548
7;529
8;507
9;487
10;460
11;425
12;392
13;366
14;344
15;329
0;324
1;318
2;317
3;307
4;295
5;295
6;304
7;318
8;336
9;355
10;368
11;381
12;382
13;383
14;393
15;406
0;406
1;409
2;416
3;424
4;436
5;446
6;450
7;457
8;465
9;478
10;491
11;503
12;512
13;519
14;524
15;526
0;525
1;523
2;515
3;514
4;518
5;526
6;534
7;539
8;545
9;545
10;541
11;536
12;535
13;537
14;540
15;543
0;546
1;549
2;556
3;562
4;567
5;573
6;577
7;576
8;563
9;546
10;539
11;545
12;552
13;555
14;559
15;561
0;552
1;546
2;546
3;543
4;546
5;542
6;535
7;528
8;528
9;531
10;543
11;548
12;547
13;538
14;529
15;535
0;551
1;550
2;551
3;562
4;568
5;564
6;557
7;555
8;562
9;570
10;572
11;574
12;576
13;580
14;577
15;572
0;573
1;577
2;576
3;582
4;592
5;601
6;598
7;584
8;579
9;585
10;592
11;589
12;584
13;587
14;591
15;598
0;606
1;611
2;619
3;626
4;629
5;627
6;632
7;632
8;630
9;627
10;624
11;616
12;613
13;606
14;593
15;584
0;579
1;581
2;582
3;582
4;574
5;563
6;538
7;529
8;544
9;550
10;546
11;539
12;532
13;532
14;538
15;544
0;551
1;560
2;561
3;562
4;559
5;556
6;557
7;559
8;556
9;547
10;543
11;524
12;505
13;500
14;502
15;505
0;506
1;505
2;496
3;491
4;490
5;492
6;493
7;495
8;497
9;495
10;490
11;493
12;499
13;502
14;501
15;504
0;499
1;494
2;496
3;494
4;495
5;503
6;504
7;500
8;500
9;508
10;521
11;532
12;538
13;532
14;514
15;495
0;485
1;483
2;492
3;496
4;500
5;512
6;524
7;521
8;514
9;509
10;507
11;504
12;505
13;511
14;511
15;511
0;515
1;518
2;518
3;508
4;488
5;490
6;498
7;499
8;493
9;499
10;505
11;504
12;512
13;513
14;500
15;473
0;455
1;456
2;460
3;470
4;482
5;489
6;488
7;485
8;481
9;476
10;471
11;465
12;464
13;466
14;466
15;468
0;475
1;482
2;483
3;478
4;471
5;468
6;472
7;480
8;482
9;488
10;489
11;479
12;471
13;466
14;465
15;467
0;470
1;470
2;473
3;476
4;475
5;474
6;476
7;483
8;497
9;509
10;503
11;497
12;497
13;496
14;497
15;502
0;496
1;488
2;486
3;490
4;496
5;500
6;506
7;517
8;534
9;544
10;547
11;543
12;524
13;511
14;504
15;487
0;478
1;472
2;465
3;465
4;460
5;460
6;470
7;476
8;480
9;489
10;496
11;496
12;492
13;484
14;479
15;476
0;474
1;472
2;471
3;471
4;472
5;477
6;482
7;493
8;508
9;518
10;526
11;535
12;546
13;560
14;574
15;585
0;597
1;607
2;614
3;622
4;625
5;623
6;616
7;607
8;600
9;593
10;584
11;576
12;560
13;537
14;511
15;486
0;460
1;426
2;398
3;371
4;354
5;342
6;338
7;331
8;327
9;336
10;355
11;375
12;393
13;412
14;418
15;416
0;414
1;416
2;415
3;412
4;427
5;452
6;463
7;470
8;465
9;434
10;414
11;422
12;437
13;435
14;437
15;444
0;454
1;465
2;472
3;475
4;481
5;483
6;486
7;491
8;495
9;500
10;508
11;514
12;520
13;524
14;525
15;531
0;542
1;550
2;555
3;558
4;558
5;551
6;545
7;540
8;539
9;536
10;533
11;539
12;540
13;538
14;541
15;539
0;534
1;529
2;527
3;528
4;529
5;532
6;539
7;549
8;547
9;545
10;548
11;553
12;558
13;567
14;575
15;580
0;584
1;580
2;584
3;591
4;601
5;604
6;610
7;598
8;571
9;544
10;523
11;520
12;527
13;526
14;532
15;538
0;540
1;550
2;560
3;569
4;570
5;566
6;569
7;580
8;590
9;590
10;580
11;572
12;557
13;544
14;543
15;558
0;572
1;572
2;571
3;572
4;573
5;569
6;564
7;557
8;555
9;565
10;575
11;583
12;589
13;591
14;590
15;587
0;588
1;591
2;594
3;592
4;584
5;566
6;544
7;534
8;534
9;533
10;542
11;553
12;559
13;557
14;546
15;537
0;536
1;537
2;536
3;537
4;544
5;553
6;554
7;548
8;538
9;528
10;520
11;513
12;513
13;518
14;528
15;535
0;534
1;529
2;519
3;508
4;498
5;490
6;486
7;482
8;479
9;477
10;480
11;483
12;483
13;490
14;503
15;514
0;518
1;517
2;518
3;517
4;510
5;498
6;485
7;467
8;462
9;469
10;470
11;463
12;458
13;464
14;467
15;480
0;508
1;531
2;527
3;508
4;492
5;468
6;451
7;444
8;445
9;455
10;471
11;485
12;497
13;500
14;498
15;501
0;481
1;475
2;473
3;473
4;473
5;471
6;473
7;476
8;480
9;481
10;489
11;507
12;529
13;539
14;545
15;530
0;508
1;490
2;487
3;486
4;481
5;476
6;476
7;477
8;477
9;479
10;482
11;483
12;478
13;475
14;475
15;474
0;475
1;476
2;483
3;489
4;490
5;497
6;502
7;497
8;495
9;491
10;488
11;479
12;470
13;468
14;468
15;469
0;468
1;469
2;478
3;490
4;503
5;514
6;508
7;481
8;464
9;453
10;445
11;458
12;464
13;461
14;441
15;430
0;441
1;463
2;483
3;496
4;496
5;494
6;494
7;495
8;494
9;495
10;496
11;496
12;495
13;499
14;506
15;510
0;508
1;509
2;511
3;516
4;509
5;493
6;484
7;484
8;487
9;489
10;502
11;508
12;496
13;477
14;461
15;467
0;478
1;483
2;482
3;483
4;486
5;484
6;487
7;489
8;492
9;496
10;502
11;504
12;505
13;506
14;511
15;518
0;525
1;533
2;543
3;553
4;562
5;578
6;590
7;598
8;608
9;622
10;629
11;623
12;611
13;593
14;593
15;593
0;584
1;575
2;559
3;528
4;502
5;481
6;463
7;440
8;412
9;391
10;375
11;370
12;370
13;371
14;363
15;358
0;354
1;351
2;349
3;355
4;369
5;391
6;411
7;422
8;431
9;436
10;443
11;446
12;444
13;442
14;445
15;447
0;453
1;465
2;471
3;473
4;475
5;481
6;487
7;492
8;502
9;512
10;520
11;522
12;525
13;533
14;531
15;530
0;530
1;526
2;526
3;531
4;537
5;540
6;535
7;530
8;533
9;534
10;538
11;543
12;545
13;544
14;552
15;560
0;564
1;563
2;542
3;511
4;491
5;493
6;503
7;508
8;509
9;512
10;518
11;525
12;536
13;546
14;549
15;547
0;550
1;554
2;560
3;554
4;542
5;536
6;538
7;556
8;593
9;620
10;615
11;601
12;591
13;579
14;560
15;547
0;546
1;549
2;551
3;538
4;528
5;526
6;521
7;514
8;514
9;526
10;539
11;549
12;555
13;558
14;560
15;563
0;570
1;571
2;571
3;575
4;581
5;589
6;593
7;593
8;596
9;590
10;569
11;555
12;547
13;553
14;565
15;566
0;569
1;559
2;542
3;529
4;519
5;527
6;546
7;566
8;574
9;568
10;561
11;552
12;545
13;543
14;545
15;543
0;541
1;538
2;538
3;541
4;544
5;545
6;548
7;552
8;549
9;544
10;546
11;552
12;551
13;545
14;541
15;541
0;540
1;540
2;541
3;544
4;549
5;556
6;554
7;544
8;535
9;523
10;514
11;516
12;521
13;521
14;515
15;515
0;517
1;524
2;519
3;505
4;497
5;495
6;493
7;493
8;491
9;496
10;505
11;512
12;507
13;504
14;510
15;517
0;531
1;545
2;556
3;556
4;571
5;571
6;531
7;492
8;475
9;468
10;468
11;467
12;465
13;463
14;463
15;468
0;473
1;474
2;478
3;487
4;488
5;477
6;478
7;483
8;487
9;495
10;501
11;498
12;499
13;504
14;512
15;516
0;520
1;529
2;532
3;513
4;501
5;502
6;495
7;494
8;507
9;510
10;511
11;511
12;495
13;479
14;473
15;469
0;457
1;453
2;455
3;457
4;460
5;468
6;478
7;486
8;489
9;483
10;476
11;476
12;473
13;469
14;465
15;470
0;489
1;504
2;514
3;513
4;505
5;490
6;487
7;490
8;494
9;496
10;490
11;483
12;483
13;486
14;487
15;489
0;495
1;504
2;505
3;502
4;493
5;486
6;493
7;500
8;508
9;511
10;495
11;477
12;472
13;468
14;467
15;473
0;477
1;474
2;473
3;475
4;477
5;475
6;475
7;474
8;472
9;472
10;474
11;484
12;498
13;508
14;512
15;519
0;526
1;515
2;495
3;478
4;466
5;464
6;469
7;474
8;476
9;471
10;472
11;482
12;492
13;499
14;501
15;506
0;511
1;512
2;512
3;512
4;514
5;524
6;541
7;556
8;569
9;577
10;575
11;569
12;568
13;571
14;574
15;572
0;570
1;568
2;566
3;563
4;566
5;554
6;533
7;519
8;512
9;506
10;492
11;473
12;454
13;434
14;417
15;402
0;394
1;391
2;387
3;381
4;377
5;376
6;383
7;391
8;400
9;415
10;424
11;415
12;403
13;403
14;408
15;422
0;443
1;458
2;455
3;458
4;460
5;457
6;467
7;486
8;491
9;491
10;494
11;503
12;512
13;513
14;517
15;515
0;511
1;510
2;515
3;524
4;533
5;540
6;543
7;537
8;532
9;520
10;505
11;498
12;496
13;502
14;510
15;519
0;529
1;536
2;543
3;545
4;542
5;538
6;536
7;534
8;533
9;540
10;548
11;552
12;559
13;569
14;579
15;585
0;573
1;551
2;534
3;529
4;528
5;527
6;531
7;533
8;531
9;536
10;543
11;548
12;558
13;566
14;566
15;556
0;538
1;533
2;536
3;542
4;546
5;542
6;544
7;554
8;556
9;552
10;550
11;555
12;559
13;565
14;565
15;568
0;577
1;585
2;578
3;563
4;547
5;539
6;542
7;556
8;562
9;565
10;569
11;575
12;579
13;583
14;591
15;590
0;579
1;583
2;593
3;594
4;595
5;606
6;605
7;598
8;591
9;583
10;580
11;579
12;574
13;562
14;553
15;547
0;550
1;551
2;550
3;551
4;552
5;552
6;556
7;561
8;566
9;570
10;571
11;570
12;579
13;584
14;571
15;557
0;545
1;539
2;538
3;538
4;537
5;540
6;544
7;542
8;535
9;529
10;529
11;537
12;549
13;542
14;527
15;516
0;501
1;488
2;487
3;487
4;485
5;487
6;487
7;481
8;481
9;480
10;476
11;481
12;490
13;501
14;497
15;497
0;495
1;488
2;488
3;491
4;495
5;496
6;496
7;502
8;515
9;526
10;533
11;541
12;547
13;549
14;541
15;530
0;522
1;516
2;514
3;511
4;511
5;509
6;505
7;505
8;510
9;518
10;524
11;529
12;532
13;531
14;526
15;527
0;534
1;536
2;528
3;521
4;510
5;497
6;487
7;483
8;489
9;495
10;491
11;487
12;485
13;493
14;501
15;501
0;503
1;503
2;505
3;508
4;509
5;509
6;505
7;503
8;509
9;509
10;505
11;494
12;486
13;485
14;490
15;491
0;489
1;483
2;476
3;467
4;454
5;448
6;453
7;462
8;467
9;474
10;482
11;483
12;475
13;465
14;455
15;454
0;457
1;454
2;451
3;453
4;457
5;459
6;463
7;468
8;476
9;481
10;481
11;479
12;484
13;497
14;504
15;498
0;493
1;492
2;497
3;505
4;512
5;517
6;513
7;505
8;498
9;488
10;484
11;479
12;483
13;482
14;475
15;477
0;485
1;489
2;496
3;507
4;509
5;506
6;499
7;492
8;486
9;488
10;499
11;510
12;525
13;542
14;542
15;530
0;513
1;500
2;492
3;486
4;487
5;496
6;507
7;518
8;525
9;533
10;535
11;537
12;546
13;557
14;565
15;567
0;572
1;581
2;582
3;578
4;570
5;560
6;559
7;560
8;563
9;563
10;552
11;529
12;498
13;474
14;463
15;452
0;435
1;421
2;399
3;382
4;374
5;359
6;346
7;335
8;325
9;332
10;346
11;359
12;374
13;386
14;396
15;406
0;416
1;424
2;424
3;423
4;430
5;433
6;441
7;449
8;459
9;475
10;499
11;499
12;479
13;474
14;479
15;480
0;488
1;498
2;504
3;509
4;510
5;511
6;512
7;508
8;507
9;511
10;515
11;519
12;522
13;526
14;531
15;536
0;537
1;537
2;539
3;543
4;543
5;539
6;539
7;540
8;535
9;526
10;519
11;520
12;525
13;528
14;531
15;532
0;531
1;533
2;539
3;548
4;555
5;560
6;560
7;558
8;552
9;540
10;531
11;533
12;537
13;540
14;552
15;575
0;589
1;596
2;598
3;575
4;537
5;523
6;526
7;531
8;539
9;553
10;568
11;574
12;569
13;567
14;569
15;572
0;574
1;580
2;588
3;580
4;568
5;564
6;558
7;554
8;560
9;564
10;569
11;575
12;574
13;571
14;570
15;572
0;575
1;575
2;575
3;575
4;573
5;572
6;579
7;581
8;578
9;575
10;575
11;576
12;577
13;575
14;576
15;579
0;578
1;575
2;575
3;578
4;578
5;575
6;571
7;568
8;566
9;571
10;580
11;578
12;575
13;566
14;556
15;547
0;546
1;544
2;539
3;537
4;536
5;532
6;531
7;529
8;530
9;531
10;534
11;542
12;546
13;548
14;554
15;564
0;563
1;546
2;519
3;502
4;499
5;505
6;504
7;507
8;514
9;521
10;521
11;517
12;516
13;515
14;505
15;498
0;492
1;487
2;474
3;469
4;474
5;478
6;480
7;483
8;489
9;495
10;487
11;484
12;487
13;494
14;498
15;494
0;494
1;503
2;510
3;512
4;509
5;503
6;495
7;486
8;490
9;496
10;500
11;507
12;509
13;505
14;502
15;504
0;512
1;519
2;523
3;519
4;517
5;514
6;508
7;496
8;480
9;475
10;487
11;508
12;527
13;543
14;553
15;552
0;536
1;510
2;476
3;463
4;456
5;451
6;456
7;461
8;465
9;470
10;472
11;473
12;474
13;475
14;472
15;469
0;469
1;473
2;476
3;483
4;491
5;487
6;477
7;464
8;456
9;454
10;456
11;462
12;464
13;469
14;476
15;476
0;475
1;479
2;483
3;483
4;473
5;467
6;465
7;469
8;474
9;475
10;472
11;470
12;477
13;482
14;485
15;486
0;480
1;476
2;475
3;474
4;482
5;485
6;483
7;481
8;482
9;488
10;494
11;497
12;496
13;497
14;497
15;493
0;489
1;488
2;486
3;482
4;484
5;486
6;487
7;490
8;492
9;488
