0;0.1
1.0;0.0
2.0;0.0
3.0;0.0
4.0;0.0
5.0;0.0
6.0;0.0
7.0;0.0
8.0;0.0
9.0;0.0
10.0;0.0
11.0;0.0
12.0;9.0
13.0;17.0
14.0;9.0
15.0;4.0
0.0;3.0
1.0;0.0
2.0;0.0
3.0;0.0
4.0;12.0
5.0;25.0
6.0;39.0
7.0;53.0
8.0;67.0
9.0;83.0
10.0;95.0
11.0;102.0
12.0;108.0
13.0;113.0
14.0;117.0
15.0;117.0
0.0;118.0
1.0;117.0
2.0;117.0
3.0;120.0
4.0;130.0
5.0;139.0
6.0;149.0
7.0;153.0
8.0;156.0
9.0;167.0
10.0;180.0
11.0;191.0
12.0;194.0
13.0;187.0
14.0;177.0
15.0;177.0
0.0;181.0
1.0;177.0
2.0;178.0
3.0;179.0
4.0;180.0
5.0;192.0
6.0;204.0
7.0;211.0
8.0;210.0
9.0;213.0
10.0;222.0
11.0;232.0
12.0;243.0
13.0;253.0
14.0;257.0
15.0;250.0
0.0;244.0
1.0;241.0
2.0;235.0
3.0;235.0
4.0;243.0
5.0;248.0
6.0;251.0
7.0;259.0
8.0;270.0
9.0;286.0
10.0;299.0
11.0;303.0
12.0;309.0
13.0;319.0
14.0;330.0
15.0;332.0
0.0;327.0
1.0;325.0
2.0;322.0
3.0;316.0
4.0;314.0
5.0;315.0
6.0;319.0
7.0;326.0
8.0;337.0
9.0;344.0
10.0;350.0
11.0;358.0
12.0;366.0
13.0;373.0
14.0;378.0
15.0;378.0
0.0;375.0
1.0;375.0
2.0;376.0
3.0;388.0
4.0;399.0
5.0;408.0
6.0;428.0
7.0;442.0
8.0;451.0
9.0;455.0
10.0;446.0
11.0;443.0
12.0;439.0
13.0;429.0
14.0;421.0
15.0;416.0
0.0;409.0
1.0;405.0
2.0;416.0
3.0;434.0
4.0;442.0
5.0;437.0
6.0;426.0
7.0;414.0
8.0;408.0
9.0;413.0
10.0;421.0
11.0;432.0
12.0;442.0
13.0;449.0
14.0;447.0
15.0;447.0
0.0;445.0
1.0;437.0
2.0;430.0
3.0;422.0
4.0;408.0
5.0;397.0
6.0;394.0
7.0;394.0
8.0;394.0
9.0;396.0
10.0;404.0
11.0;410.0
12.0;417.0
13.0;417.0
14.0;408.0
15.0;404.0
0.0;410.0
1.0;415.0
2.0;413.0
3.0;412.0
4.0;412.0
5.0;409.0
6.0;408.0
7.0;407.0
8.0;404.0
9.0;399.0
10.0;392.0
11.0;391.0
12.0;395.0
13.0;396.0
14.0;404.0
15.0;412.0
0.0;422.0
1.0;431.0
2.0;436.0
3.0;436.0
4.0;436.0
5.0;434.0
6.0;429.0
7.0;425.0
8.0;421.0
9.0;420.0
10.0;421.0
11.0;425.0
12.0;431.0
13.0;435.0
14.0;440.0
15.0;444.0
0.0;449.0
1.0;455.0
2.0;460.0
3.0;462.0
4.0;464.0
5.0;463.0
6.0;458.0
7.0;450.0
8.0;451.0
9.0;454.0
10.0;464.0
11.0;484.0
12.0;495.0
13.0;504.0
14.0;507.0
15.0;509.0
0.0;506.0
1.0;495.0
2.0;489.0
3.0;485.0
4.0;474.0
5.0;467.0
6.0;462.0
7.0;458.0
8.0;449.0
9.0;444.0
10.0;441.0
11.0;438.0
12.0;440.0
13.0;440.0
14.0;445.0
15.0;452.0
0.0;452.0
1.0;449.0
2.0;447.0
3.0;457.0
4.0;464.0
5.0;458.0
6.0;451.0
7.0;450.0
8.0;449.0
9.0;445.0
10.0;438.0
11.0;435.0
12.0;436.0
13.0;435.0
14.0;435.0
15.0;437.0
0.0;438.0
1.0;440.0
2.0;440.0
3.0;439.0
4.0;435.0
5.0;425.0
6.0;417.0
7.0;406.0
8.0;391.0
9.0;380.0
10.0;381.0
11.0;388.0
12.0;395.0
13.0;400.0
14.0;404.0
15.0;406.0
0.0;410.0
1.0;417.0
2.0;418.0
3.0;419.0
4.0;422.0
5.0;426.0
6.0;423.0
7.0;423.0
8.0;424.0
9.0;424.0
10.0;428.0
11.0;431.0
12.0;432.0
13.0;434.0
14.0;437.0
15.0;439.0
0.0;440.0
1.0;448.0
2.0;455.0
3.0;457.0
4.0;458.0
5.0;459.0
6.0;455.0
7.0;456.0
8.0;455.0
9.0;451.0
10.0;441.0
11.0;436.0
12.0;431.0
13.0;429.0
14.0;436.0
15.0;444.0
0.0;451.0
1.0;456.0
2.0;466.0
3.0;473.0
4.0;478.0
5.0;479.0
6.0;474.0
7.0;468.0
8.0;455.0
9.0;456.0
10.0;454.0
11.0;449.0
12.0;451.0
13.0;451.0
14.0;447.0
15.0;443.0
0.0;439.0
1.0;437.0
2.0;436.0
3.0;435.0
4.0;426.0
5.0;417.0
6.0;416.0
7.0;419.0
8.0;418.0
9.0;419.0
10.0;418.0
11.0;419.0
12.0;424.0
13.0;436.0
14.0;452.0
15.0;460.0
0.0;464.0
1.0;482.0
2.0;507.0
3.0;537.0
4.0;562.0
5.0;584.0
6.0;599.0
7.0;605.0
8.0;611.0
9.0;623.0
10.0;647.0
11.0;677.0
12.0;704.0
13.0;728.0
14.0;742.0
15.0;749.0
0.0;751.0
1.0;746.0
2.0;727.0
3.0;697.0
4.0;668.0
5.0;633.0
6.0;591.0
7.0;549.0
8.0;504.0
9.0;456.0
10.0;424.0
11.0;407.0
12.0;391.0
13.0;378.0
14.0;372.0
15.0;366.0
0.0;360.0
1.0;359.0
2.0;361.0
3.0;361.0
4.0;368.0
5.0;377.0
6.0;390.0
7.0;403.0
8.0;415.0
9.0;421.0
10.0;422.0
11.0;426.0
12.0;429.0
13.0;428.0
14.0;427.0
15.0;427.0
0.0;428.0
1.0;429.0
2.0;430.0
3.0;434.0
4.0;442.0
5.0;456.0
6.0;473.0
7.0;484.0
8.0;494.0
9.0;503.0
10.0;508.0
11.0;513.0
12.0;519.0
13.0;521.0
14.0;519.0
15.0;521.0
0.0;524.0
1.0;526.0
2.0;527.0
3.0;531.0
4.0;535.0
5.0;541.0
6.0;563.0
7.0;587.0
8.0;603.0
9.0;608.0
10.0;603.0
11.0;593.0
12.0;587.0
13.0;582.0
14.0;577.0
15.0;574.0
0.0;577.0
1.0;578.0
2.0;574.0
3.0;575.0
4.0;583.0
5.0;593.0
6.0;604.0
7.0;612.0
8.0;614.0
9.0;616.0
10.0;622.0
11.0;622.0
12.0;611.0
13.0;603.0
14.0;600.0
15.0;597.0
0.0;601.0
1.0;603.0
2.0;598.0
3.0;594.0
4.0;600.0
5.0;609.0
6.0;617.0
7.0;629.0
8.0;645.0
9.0;655.0
10.0;648.0
11.0;637.0
12.0;626.0
13.0;615.0
14.0;607.0
15.0;599.0
0.0;591.0
1.0;589.0
2.0;588.0
3.0;587.0
4.0;595.0
5.0;602.0
6.0;611.0
7.0;624.0
8.0;636.0
9.0;640.0
10.0;640.0
11.0;643.0
12.0;644.0
13.0;640.0
14.0;642.0
15.0;645.0
0.0;644.0
1.0;643.0
2.0;643.0
3.0;645.0
4.0;649.0
5.0;657.0
6.0;664.0
7.0;665.0
8.0;671.0
9.0;678.0
10.0;684.0
11.0;689.0
12.0;694.0
13.0;697.0
14.0;697.0
15.0;699.0
0.0;695.0
1.0;690.0
2.0;686.0
3.0;684.0
4.0;681.0
5.0;681.0
6.0;683.0
7.0;686.0
8.0;688.0
9.0;694.0
10.0;700.0
11.0;704.0
12.0;710.0
13.0;711.0
14.0;711.0
15.0;708.0
0.0;701.0
1.0;694.0
2.0;689.0
3.0;685.0
4.0;678.0
5.0;674.0
6.0;672.0
7.0;673.0
8.0;679.0
9.0;689.0
10.0;700.0
11.0;702.0
12.0;700.0
13.0;700.0
14.0;707.0
15.0;711.0
0.0;716.0
1.0;708.0
2.0;697.0
3.0;678.0
4.0;662.0
5.0;660.0
6.0;662.0
7.0;655.0
8.0;639.0
9.0;621.0
10.0;613.0
11.0;613.0
12.0;543.0
13.0;303.0
14.0;84.0
15.0;0.0
0.0;0.0
1.0;0.0
2.0;0.0
3.0;0.0
4.0;0.0
5.0;0.0
6.0;0.0
7.0;0.0
8.0;0.0
9.0;0.0
10.0;0.0
11.0;0.0
12.0;0.0
13.0;0.0
14.0;0.0
15.0;0.0
0.0;0.0
1.0;47.0
2.0;83.0
3.0;112.0
4.0;132.0
5.0;152.0
6.0;169.0
7.0;178.0
8.0;184.0
9.0;190.0
10.0;200.0
11.0;214.0
12.0;235.0
13.0;257.0
14.0;283.0
15.0;320.0
0.0;362.0
1.0;406.0
2.0;447.0
3.0;483.0
4.0;515.0
5.0;543.0
6.0;563.0
7.0;574.0
8.0;579.0
9.0;588.0
10.0;595.0
11.0;593.0
12.0;594.0
13.0;602.0
14.0;613.0
15.0;630.0
0.0;653.0
1.0;677.0
2.0;699.0
3.0;719.0
4.0;735.0
5.0;747.0
6.0;763.0
7.0;770.0
8.0;765.0
9.0;757.0
10.0;748.0
11.0;736.0
12.0;723.0
13.0;716.0
14.0;716.0
15.0;718.0
0.0;724.0
1.0;736.0
2.0;750.0
3.0;771.0
4.0;809.0
5.0;826.0
6.0;820.0
7.0;813.0
8.0;800.0
9.0;773.0
10.0;749.0
11.0;723.0
12.0;698.0
13.0;677.0
14.0;666.0
15.0;659.0
0.0;657.0
1.0;660.0
2.0;667.0
3.0;678.0
4.0;692.0
5.0;696.0
6.0;692.0
7.0;696.0
8.0;687.0
9.0;669.0
10.0;649.0
11.0;627.0
12.0;598.0
13.0;567.0
14.0;551.0
15.0;547.0
0.0;547.0
1.0;550.0
2.0;558.0
3.0;565.0
4.0;578.0
5.0;593.0
6.0;610.0
7.0;623.0
8.0;632.0
9.0;633.0
10.0;627.0
11.0;614.0
12.0;598.0
13.0;582.0
14.0;569.0
15.0;566.0
0.0;568.0
1.0;573.0
2.0;588.0
3.0;606.0
4.0;621.0
5.0;638.0
6.0;653.0
7.0;666.0
8.0;680.0
9.0;697.0
10.0;709.0
11.0;715.0
12.0;720.0
13.0;724.0
14.0;727.0
15.0;733.0
0.0;743.0
1.0;751.0
2.0;758.0
3.0;770.0
4.0;777.0
5.0;773.0
6.0;767.0
7.0;762.0
8.0;752.0
9.0;742.0
10.0;731.0
11.0;719.0
12.0;711.0
13.0;705.0
14.0;699.0
15.0;694.0
0.0;692.0
1.0;691.0
2.0;692.0
3.0;696.0
4.0;697.0
5.0;700.0
6.0;703.0
7.0;709.0
8.0;709.0
9.0;700.0
10.0;695.0
11.0;695.0
12.0;707.0
13.0;737.0
14.0;761.0
15.0;783.0
0.0;810.0
1.0;832.0
2.0;853.0
3.0;875.0
4.0;898.0
5.0;920.0
6.0;939.0
7.0;963.0
8.0;984.0
9.0;997.0
10.0;1005.0
11.0;992.0
12.0;957.0
13.0;926.0
14.0;896.0
15.0;862.0
0.0;825.0
1.0;782.0
2.0;731.0
3.0;686.0
4.0;645.0
5.0;615.0
6.0;589.0
7.0;567.0
8.0;550.0
9.0;534.0
10.0;518.0
11.0;502.0
12.0;484.0
13.0;466.0
14.0;455.0
15.0;452.0
0.0;450.0
1.0;455.0
2.0;475.0
3.0;503.0
4.0;533.0
5.0;561.0
6.0;587.0
7.0;607.0
8.0;623.0
9.0;635.0
10.0;641.0
11.0;647.0
12.0;657.0
13.0;666.0
14.0;674.0
15.0;687.0
0.0;701.0
1.0;713.0
2.0;728.0
3.0;743.0
4.0;755.0
5.0;764.0
6.0;773.0
7.0;777.0
8.0;775.0
9.0;774.0
10.0;771.0
11.0;765.0
12.0;760.0
13.0;754.0
14.0;751.0
15.0;754.0
0.0;760.0
1.0;764.0
2.0;764.0
3.0;771.0
4.0;776.0
5.0;779.0
6.0;781.0
7.0;783.0
8.0;784.0
9.0;784.0
10.0;781.0
11.0;773.0
12.0;764.0
13.0;760.0
14.0;753.0
15.0;740.0
0.0;732.0
1.0;731.0
2.0;729.0
3.0;730.0
4.0;734.0
5.0;735.0
6.0;721.0
7.0;707.0
8.0;705.0
9.0;699.0
10.0;687.0
11.0;675.0
12.0;662.0
13.0;652.0
14.0;664.0
15.0;679.0
0.0;689.0
1.0;699.0
2.0;695.0
3.0;684.0
4.0;678.0
5.0;677.0
6.0;675.0
7.0;677.0
8.0;683.0
9.0;685.0
10.0;683.0
11.0;675.0
12.0;663.0
13.0;650.0
14.0;639.0
15.0;632.0
0.0;628.0
1.0;631.0
2.0;638.0
3.0;647.0
4.0;657.0
5.0;668.0
6.0;673.0
7.0;678.0
8.0;680.0
9.0;681.0
10.0;677.0
11.0;670.0
12.0;664.0
13.0;654.0
14.0;644.0
15.0;638.0
0.0;636.0
1.0;639.0
2.0;645.0
3.0;647.0
4.0;643.0
5.0;642.0
6.0;647.0
7.0;649.0
8.0;651.0
9.0;650.0
10.0;647.0
11.0;644.0
12.0;643.0
13.0;641.0
14.0;634.0
15.0;630.0
0.0;627.0
1.0;623.0
2.0;619.0
3.0;617.0
4.0;620.0
5.0;631.0
6.0;648.0
7.0;661.0
8.0;669.0
9.0;673.0
10.0;676.0
11.0;671.0
12.0;664.0
13.0;659.0
14.0;647.0
15.0;627.0
0.0;612.0
1.0;599.0
2.0;589.0
3.0;588.0
4.0;596.0
5.0;598.0
6.0;600.0
7.0;613.0
8.0;634.0
9.0;645.0
10.0;648.0
11.0;645.0
12.0;637.0
13.0;627.0
14.0;612.0
15.0;590.0
0.0;565.0
1.0;545.0
2.0;527.0
3.0;515.0
4.0;514.0
5.0;510.0
6.0;517.0
7.0;530.0
8.0;539.0
9.0;552.0
10.0;560.0
11.0;564.0
12.0;563.0
13.0;549.0
14.0;534.0
15.0;523.0
0.0;510.0
1.0;497.0
2.0;485.0
3.0;475.0
4.0;474.0
5.0;475.0
6.0;473.0
7.0;475.0
8.0;483.0
9.0;492.0
10.0;499.0
11.0;507.0
12.0;515.0
13.0;516.0
14.0;515.0
15.0;509.0
0.0;498.0
1.0;485.0
2.0;478.0
3.0;471.0
4.0;465.0
5.0;461.0
6.0;458.0
7.0;457.0
8.0;463.0
9.0;472.0
10.0;480.0
11.0;489.0
12.0;502.0
13.0;508.0
14.0;506.0
15.0;504.0
0.0;502.0
1.0;492.0
2.0;485.0
3.0;481.0
4.0;477.0
5.0;475.0
6.0;475.0
7.0;477.0
8.0;483.0
9.0;496.0
10.0;508.0
11.0;515.0
12.0;524.0
13.0;526.0
14.0;524.0
15.0;519.0
0.0;519.0
1.0;519.0
2.0;519.0
3.0;520.0
4.0;522.0
5.0;514.0
6.0;509.0
7.0;507.0
8.0;505.0
9.0;505.0
10.0;508.0
11.0;509.0
12.0;510.0
13.0;505.0
14.0;503.0
15.0;501.0
0.0;495.0
1.0;482.0
2.0;462.0
3.0;446.0
4.0;450.0
5.0;458.0
6.0;451.0
7.0;445.0
8.0;441.0
9.0;440.0
10.0;441.0
11.0;449.0
12.0;453.0
13.0;455.0
14.0;459.0
15.0;459.0
0.0;452.0
1.0;443.0
2.0;433.0
3.0;419.0
4.0;416.0
5.0;424.0
6.0;427.0
7.0;425.0
8.0;428.0
9.0;425.0
10.0;420.0
11.0;426.0
12.0;441.0
13.0;450.0
14.0;456.0
15.0;458.0
0.0;459.0
1.0;456.0
2.0;451.0
3.0;436.0
4.0;414.0
5.0;399.0
6.0;396.0
7.0;401.0
8.0;406.0
9.0;411.0
10.0;418.0
11.0;428.0
12.0;441.0
13.0;451.0
14.0;458.0
15.0;466.0
0.0;471.0
1.0;466.0
2.0;459.0
3.0;455.0
4.0;446.0
5.0;435.0
6.0;431.0
7.0;425.0
8.0;420.0
9.0;424.0
10.0;430.0
11.0;435.0
12.0;451.0
13.0;472.0
14.0;490.0
15.0;506.0
0.0;505.0
1.0;490.0
2.0;476.0
3.0;475.0
4.0;482.0
5.0;474.0
6.0;471.0
7.0;470.0
8.0;463.0
9.0;444.0
10.0;420.0
11.0;405.0
12.0;404.0
13.0;411.0
14.0;419.0
15.0;423.0
0.0;423.0
1.0;423.0
2.0;418.0
3.0;408.0
4.0;395.0
5.0;390.0
6.0;385.0
7.0;382.0
8.0;382.0
9.0;384.0
10.0;395.0
11.0;415.0
12.0;438.0
13.0;462.0
14.0;487.0
15.0;508.0
0.0;529.0
1.0;549.0
2.0;568.0
3.0;589.0
4.0;615.0
5.0;638.0
6.0;657.0
7.0;669.0
8.0;674.0
9.0;675.0
10.0;671.0
11.0;668.0
12.0;657.0
13.0;636.0
14.0;616.0
15.0;593.0
0.0;563.0
1.0;529.0
2.0;497.0
3.0;463.0
4.0;432.0
5.0;411.0
6.0;391.0
7.0;366.0
8.0;345.0
9.0;328.0
10.0;310.0
11.0;302.0
12.0;312.0
13.0;325.0
14.0;338.0
15.0;358.0
0.0;377.0
1.0;393.0
2.0;419.0
3.0;443.0
4.0;453.0
5.0;451.0
6.0;448.0
7.0;438.0
8.0;418.0
9.0;409.0
10.0;404.0
11.0;393.0
12.0;388.0
13.0;395.0
14.0;398.0
15.0;401.0
0.0;415.0
1.0;432.0
2.0;447.0
3.0;466.0
4.0;486.0
5.0;496.0
6.0;500.0
7.0;497.0
8.0;496.0
9.0;489.0
10.0;477.0
11.0;467.0
12.0;461.0
13.0;470.0
14.0;481.0
15.0;487.0
0.0;500.0
1.0;521.0
2.0;544.0
3.0;560.0
4.0;569.0
5.0;571.0
6.0;572.0
7.0;578.0
8.0;588.0
9.0;591.0
10.0;579.0
11.0;566.0
12.0;558.0
13.0;558.0
14.0;563.0
15.0;566.0
0.0;568.0
1.0;567.0
2.0;575.0
3.0;592.0
4.0;601.0
5.0;597.0
6.0;583.0
7.0;573.0
8.0;571.0
9.0;571.0
10.0;563.0
11.0;563.0
12.0;560.0
13.0;555.0
14.0;555.0
15.0;561.0
0.0;565.0
1.0;571.0
2.0;580.0
3.0;587.0
4.0;587.0
5.0;588.0
6.0;593.0
7.0;593.0
8.0;592.0
9.0;590.0
10.0;578.0
11.0;565.0
12.0;558.0
13.0;552.0
14.0;554.0
15.0;565.0
0.0;571.0
1.0;570.0
2.0;570.0
3.0;574.0
4.0;578.0
5.0;591.0
6.0;603.0
7.0;607.0
8.0;608.0
9.0;607.0
10.0;604.0
11.0;600.0
12.0;595.0
13.0;587.0
14.0;579.0
15.0;580.0
0.0;593.0
1.0;612.0
2.0;633.0
3.0;641.0
4.0;642.0
5.0;641.0
6.0;652.0
7.0;663.0
8.0;661.0
9.0;652.0
10.0;633.0
11.0;611.0
12.0;603.0
13.0;617.0
14.0;652.0
15.0;679.0
0.0;701.0
1.0;699.0
2.0;680.0
3.0;667.0
4.0;657.0
5.0;651.0
6.0;649.0
7.0;650.0
8.0;648.0
9.0;640.0
10.0;637.0
11.0;632.0
12.0;620.0
13.0;612.0
14.0;604.0
15.0;595.0
0.0;593.0
1.0;600.0
2.0;604.0
3.0;607.0
4.0;619.0
5.0;628.0
6.0;632.0
7.0;634.0
8.0;633.0
9.0;628.0
10.0;618.0
11.0;607.0
12.0;592.0
13.0;571.0
14.0;553.0
15.0;534.0
0.0;521.0
1.0;522.0
2.0;528.0
3.0;530.0
4.0;535.0
5.0;540.0
6.0;546.0
7.0;551.0
8.0;556.0
9.0;555.0
10.0;546.0
11.0;540.0
12.0;529.0
13.0;516.0
14.0;502.0
15.0;493.0
0.0;491.0
1.0;490.0
2.0;492.0
3.0;492.0
4.0;492.0
5.0;493.0
6.0;502.0
7.0;509.0
8.0;516.0
9.0;519.0
10.0;521.0
11.0;519.0
12.0;513.0
13.0;501.0
14.0;487.0
15.0;480.0
0.0;478.0
1.0;478.0
2.0;475.0
3.0;468.0
4.0;462.0
5.0;463.0
6.0;477.0
7.0;489.0
8.0;485.0
9.0;485.0
10.0;496.0
11.0;505.0
12.0;508.0
13.0;518.0
14.0;530.0
15.0;533.0
0.0;537.0
1.0;546.0
2.0;543.0
3.0;528.0
4.0;514.0
5.0;506.0
6.0;506.0
7.0;507.0
8.0;509.0
9.0;511.0
10.0;522.0
11.0;528.0
12.0;527.0
13.0;531.0
14.0;531.0
15.0;523.0
0.0;517.0
1.0;512.0
2.0;500.0
3.0;488.0
4.0;484.0
5.0;482.0
6.0;484.0
7.0;489.0
8.0;499.0
9.0;513.0
10.0;524.0
11.0;532.0
12.0;532.0
13.0;532.0
14.0;532.0
15.0;526.0
0.0;519.0
1.0;514.0
2.0;514.0
3.0;515.0
4.0;517.0
5.0;525.0
6.0;532.0
7.0;536.0
8.0;543.0
9.0;547.0
10.0;552.0
11.0;558.0
12.0;564.0
13.0;569.0
14.0;575.0
15.0;582.0
0.0;588.0
1.0;593.0
2.0;600.0
3.0;608.0
4.0;618.0
5.0;634.0
6.0;643.0
7.0;651.0
8.0;658.0
9.0;664.0
10.0;665.0
11.0;665.0
12.0;665.0
13.0;665.0
14.0;662.0
15.0;663.0
0.0;662.0
1.0;658.0
2.0;656.0
3.0;663.0
4.0;671.0
5.0;681.0
6.0;688.0
7.0;692.0
8.0;691.0
9.0;693.0
10.0;705.0
11.0;740.0
12.0;769.0
13.0;769.0
14.0;742.0
15.0;725.0
0.0;724.0
1.0;723.0
2.0;716.0
3.0;705.0
4.0;696.0
5.0;687.0
6.0;680.0
7.0;681.0
8.0;686.0
9.0;685.0
10.0;690.0
11.0;692.0
12.0;684.0
13.0;676.0
14.0;668.0
15.0;662.0
0.0;659.0
1.0;659.0
2.0;666.0
3.0;672.0
4.0;672.0
5.0;657.0
6.0;636.0
7.0;620.0
8.0;609.0
9.0;594.0
10.0;583.0
11.0;574.0
12.0;562.0
13.0;551.0
14.0;537.0
15.0;526.0
0.0;519.0
1.0;518.0
2.0;515.0
3.0;513.0
4.0;512.0
5.0;514.0
6.0;515.0
7.0;523.0
8.0;531.0
9.0;536.0
10.0;545.0
11.0;563.0
12.0;583.0
13.0;602.0
14.0;618.0
15.0;634.0
0.0;651.0
1.0;667.0
2.0;684.0
3.0;700.0
4.0;720.0
5.0;751.0
6.0;780.0
7.0;797.0
8.0;802.0
9.0;797.0
10.0;775.0
11.0;745.0
12.0;714.0
13.0;683.0
14.0;649.0
15.0;611.0
0.0;565.0
1.0;518.0
2.0;476.0
3.0;440.0
4.0;410.0
5.0;391.0
6.0;381.0
7.0;374.0
8.0;365.0
9.0;356.0
10.0;347.0
11.0;339.0
12.0;342.0
13.0;352.0
14.0;365.0
15.0;396.0
0.0;414.0
1.0;408.0
2.0;402.0
3.0;402.0
4.0;408.0
5.0;410.0
6.0;409.0
7.0;408.0
8.0;400.0
9.0;384.0
10.0;370.0
11.0;368.0
12.0;379.0
13.0;391.0
14.0;403.0
15.0;419.0
0.0;435.0
1.0;454.0
2.0;469.0
3.0;482.0
4.0;486.0
5.0;487.0
6.0;491.0
7.0;491.0
8.0;492.0
9.0;490.0
10.0;487.0
11.0;488.0
12.0;495.0
13.0;502.0
14.0;512.0
15.0;521.0
0.0;535.0
1.0;541.0
2.0;541.0
3.0;542.0
4.0;547.0
5.0;557.0
6.0;569.0
7.0;575.0
8.0;575.0
9.0;567.0
10.0;561.0
11.0;562.0
12.0;559.0
13.0;557.0
14.0;558.0
15.0;556.0
0.0;551.0
1.0;550.0
2.0;555.0
3.0;553.0
4.0;548.0
5.0;550.0
6.0;554.0
7.0;560.0
8.0;569.0
9.0;577.0
10.0;582.0
11.0;586.0
12.0;591.0
13.0;595.0
14.0;597.0
15.0;598.0
0.0;594.0
1.0;586.0
2.0;579.0
3.0;574.0
4.0;585.0
5.0;611.0
6.0;636.0
7.0;654.0
8.0;671.0
9.0;670.0
10.0;660.0
11.0;647.0
12.0;637.0
13.0;629.0
14.0;622.0
15.0;613.0
0.0;609.0
1.0;611.0
2.0;611.0
3.0;608.0
4.0;607.0
5.0;608.0
6.0;606.0
7.0;606.0
8.0;607.0
9.0;611.0
10.0;608.0
11.0;604.0
12.0;606.0
13.0;620.0
14.0;637.0
15.0;658.0
0.0;675.0
1.0;669.0
2.0;656.0
3.0;643.0
4.0;637.0
5.0;636.0
6.0;635.0
7.0;633.0
8.0;628.0
9.0;628.0
10.0;629.0
11.0;625.0
12.0;624.0
13.0;626.0
14.0;626.0
15.0;622.0
0.0;618.0
1.0;620.0
2.0;619.0
3.0;615.0
4.0;611.0
5.0;608.0
6.0;604.0
7.0;604.0
8.0;608.0
9.0;608.0
10.0;607.0
11.0;611.0
12.0;619.0
13.0;620.0
14.0;612.0
15.0;599.0
0.0;585.0
1.0;578.0
2.0;577.0
3.0;573.0
4.0;570.0
5.0;565.0
6.0;560.0
7.0;558.0
8.0;556.0
9.0;556.0
10.0;553.0
11.0;551.0
12.0;548.0
13.0;544.0
14.0;547.0
15.0;552.0
0.0;550.0
1.0;545.0
2.0;544.0
3.0;541.0
4.0;548.0
5.0;554.0
6.0;556.0
7.0;551.0
8.0;542.0
9.0;534.0
10.0;527.0
11.0;524.0
12.0;527.0
13.0;532.0
14.0;532.0
15.0;528.0
0.0;523.0
1.0;520.0
2.0;519.0
3.0;513.0
4.0;499.0
5.0;487.0
6.0;483.0
7.0;482.0
8.0;478.0
9.0;474.0
10.0;475.0
11.0;479.0
12.0;481.0
13.0;476.0
14.0;467.0
15.0;461.0
0.0;472.0
1.0;492.0
2.0;513.0
3.0;545.0
4.0;544.0
5.0;517.0
6.0;497.0
7.0;483.0
8.0;473.0
9.0;470.0
10.0;474.0
11.0;475.0
12.0;476.0
13.0;471.0
14.0;461.0
15.0;448.0
0.0;437.0
1.0;433.0
2.0;428.0
3.0;421.0
4.0;421.0
5.0;437.0
6.0;459.0
7.0;489.0
8.0;505.0
9.0;496.0
10.0;476.0
11.0;452.0
12.0;437.0
13.0;423.0
14.0;408.0
15.0;393.0
0.0;386.0
1.0;384.0
2.0;382.0
3.0;375.0
4.0;373.0
5.0;377.0
6.0;379.0
7.0;384.0
8.0;393.0
9.0;397.0
10.0;399.0
11.0;402.0
12.0;404.0
13.0;404.0
14.0;408.0
15.0;410.0
0.0;412.0
1.0;413.0
2.0;415.0
3.0;415.0
4.0;415.0
5.0;417.0
6.0;417.0
7.0;415.0
8.0;415.0
9.0;420.0
10.0;425.0
11.0;429.0
12.0;437.0
13.0;446.0
14.0;456.0
15.0;466.0
0.0;467.0
1.0;464.0
2.0;460.0
3.0;460.0
4.0;461.0
5.0;462.0
6.0;463.0
7.0;463.0
8.0;466.0
9.0;470.0
10.0;471.0
11.0;475.0
12.0;481.0
13.0;478.0
14.0;469.0
15.0;460.0
0.0;467.0
1.0;486.0
2.0;502.0
3.0;511.0
4.0;519.0
5.0;527.0
6.0;531.0
7.0;526.0
8.0;512.0
9.0;501.0
10.0;497.0
11.0;495.0
12.0;491.0
13.0;491.0
14.0;498.0
15.0;501.0
0.0;502.0
1.0;505.0
2.0;512.0
3.0;521.0
4.0;532.0
5.0;521.0
6.0;502.0
7.0;490.0
8.0;484.0
9.0;483.0
10.0;483.0
11.0;483.0
12.0;484.0
13.0;486.0
14.0;487.0
15.0;484.0
0.0;486.0
1.0;485.0
2.0;478.0
3.0;472.0
4.0;470.0
5.0;470.0
6.0;465.0
7.0;459.0
8.0;453.0
9.0;444.0
10.0;436.0
11.0;431.0
12.0;425.0
13.0;418.0
14.0;409.0
15.0;403.0
0.0;395.0
1.0;386.0
2.0;380.0
3.0;380.0
4.0;382.0
5.0;387.0
6.0;391.0
7.0;392.0
8.0;397.0
9.0;409.0
10.0;429.0
11.0;454.0
12.0;480.0
13.0;503.0
14.0;525.0
15.0;544.0
0.0;558.0
1.0;568.0
2.0;585.0
3.0;609.0
4.0;643.0
5.0;676.0
6.0;708.0
7.0;732.0
8.0;739.0
9.0;743.0
10.0;746.0
11.0;730.0
12.0;698.0
13.0;658.0
14.0;617.0
15.0;569.0
0.0;512.0
1.0;456.0
2.0;409.0
3.0;376.0
4.0;350.0
5.0;332.0
6.0;320.0
7.0;315.0
8.0;318.0
9.0;327.0
10.0;337.0
11.0;345.0
12.0;357.0
13.0;360.0
14.0;358.0
15.0;351.0
0.0;347.0
1.0;344.0
2.0;343.0
3.0;347.0
4.0;356.0
5.0;364.0
6.0;373.0
7.0;377.0
8.0;377.0
9.0;383.0
10.0;392.0
11.0;402.0
12.0;414.0
13.0;434.0
14.0;448.0
15.0;454.0
0.0;459.0
1.0;463.0
2.0;467.0
3.0;469.0
4.0;474.0
5.0;477.0
6.0;475.0
7.0;478.0
8.0;485.0
9.0;489.0
10.0;492.0
11.0;499.0
12.0;510.0
13.0;520.0
14.0;532.0
15.0;542.0
0.0;547.0
1.0;552.0
2.0;554.0
3.0;549.0
4.0;545.0
5.0;543.0
6.0;545.0
7.0;545.0
8.0;547.0
9.0;546.0
10.0;550.0
11.0;561.0
12.0;578.0
13.0;591.0
14.0;620.0
15.0;643.0
0.0;646.0
1.0;625.0
2.0;602.0
3.0;580.0
4.0;563.0
5.0;550.0
6.0;540.0
7.0;542.0
8.0;548.0
9.0;555.0
10.0;560.0
11.0;561.0
12.0;563.0
13.0;566.0
14.0;567.0
15.0;572.0
0.0;576.0
1.0;579.0
2.0;580.0
3.0;580.0
4.0;574.0
5.0;570.0
6.0;566.0
7.0;564.0
8.0;565.0
9.0;568.0
10.0;569.0
11.0;570.0
12.0;575.0
13.0;580.0
14.0;579.0
15.0;580.0
0.0;585.0
1.0;598.0
2.0;607.0
3.0;610.0
4.0;608.0
5.0;599.0
6.0;593.0
7.0;587.0
8.0;582.0
9.0;583.0
10.0;594.0
11.0;608.0
12.0;609.0
13.0;614.0
14.0;624.0
15.0;631.0
0.0;632.0
1.0;635.0
2.0;635.0
3.0;633.0
4.0;632.0
5.0;630.0
6.0;622.0
7.0;613.0
8.0;604.0
9.0;598.0
10.0;597.0
11.0;602.0
12.0;608.0
13.0;617.0
14.0;624.0
15.0;629.0
0.0;632.0
1.0;637.0
2.0;640.0
3.0;642.0
4.0;653.0
5.0;662.0
6.0;655.0
7.0;642.0
8.0;627.0
9.0;606.0
10.0;594.0
11.0;592.0
12.0;595.0
13.0;599.0
14.0;605.0
15.0;614.0
0.0;624.0
1.0;631.0
2.0;630.0
3.0;622.0
4.0;612.0
5.0;607.0
6.0;604.0
7.0;600.0
8.0;593.0
9.0;590.0
10.0;588.0
11.0;591.0
12.0;605.0
13.0;623.0
14.0;631.0
15.0;638.0
0.0;645.0
1.0;636.0
2.0;611.0
3.0;584.0
4.0;561.0
5.0;542.0
6.0;531.0
7.0;521.0
8.0;511.0
9.0;508.0
10.0;508.0
11.0;510.0
12.0;513.0
13.0;514.0
14.0;513.0
15.0;518.0
0.0;524.0
1.0;533.0
2.0;550.0
3.0;578.0
4.0;588.0
5.0;572.0
6.0;551.0
7.0;534.0
8.0;523.0
9.0;518.0
10.0;515.0
11.0;511.0
12.0;503.0
13.0;499.0
14.0;498.0
15.0;498.0
0.0;504.0
1.0;515.0
2.0;523.0
3.0;529.0
4.0;536.0
5.0;539.0
6.0;536.0
7.0;533.0
8.0;528.0
9.0;521.0
10.0;518.0
11.0;517.0
12.0;513.0
13.0;514.0
14.0;520.0
15.0;530.0
0.0;540.0
1.0;552.0
2.0;560.0
3.0;567.0
4.0;572.0
5.0;575.0
6.0;576.0
7.0;575.0
8.0;572.0
9.0;564.0
10.0;551.0
11.0;539.0
12.0;529.0
13.0;526.0
14.0;526.0
15.0;526.0
0.0;520.0
1.0;519.0
2.0;524.0
3.0;530.0
4.0;531.0
5.0;532.0
6.0;535.0
7.0;532.0
8.0;525.0
9.0;519.0
10.0;516.0
11.0;513.0
12.0;507.0
13.0;507.0
14.0;512.0
15.0;526.0
0.0;540.0
1.0;549.0
2.0;553.0
3.0;553.0
4.0;551.0
5.0;546.0
6.0;540.0
7.0;523.0
8.0;505.0
9.0;483.0
10.0;468.0
11.0;457.0
12.0;449.0
13.0;439.0
14.0;428.0
15.0;423.0
0.0;425.0
1.0;429.0
2.0;445.0
3.0;468.0
4.0;480.0
5.0;477.0
6.0;474.0
7.0;467.0
8.0;464.0
9.0;464.0
10.0;461.0
11.0;453.0
12.0;445.0
13.0;436.0
14.0;423.0
15.0;414.0
0.0;412.0
1.0;413.0
2.0;411.0
3.0;414.0
4.0;423.0
5.0;434.0
6.0;443.0
7.0;449.0
8.0;451.0
9.0;449.0
10.0;451.0
11.0;451.0
12.0;445.0
13.0;444.0
14.0;446.0
15.0;445.0
0.0;445.0
1.0;448.0
2.0;448.0
3.0;447.0
4.0;451.0
5.0;458.0
6.0;461.0
7.0;464.0
8.0;464.0
9.0;465.0
10.0;463.0
11.0;460.0
12.0;455.0
13.0;448.0
14.0;445.0
15.0;445.0
0.0;446.0
1.0;448.0
2.0;448.0
3.0;440.0
4.0;424.0
5.0;410.0
6.0;410.0
7.0;444.0
8.0;495.0
9.0;520.0
10.0;518.0
11.0;496.0
12.0;461.0
13.0;428.0
14.0;400.0
15.0;379.0
0.0;365.0
1.0;355.0
2.0;348.0
3.0;345.0
4.0;351.0
5.0;371.0
6.0;391.0
7.0;405.0
8.0;415.0
9.0;428.0
10.0;445.0
11.0;472.0
12.0;501.0
13.0;521.0
14.0;536.0
15.0;551.0
0.0;565.0
1.0;583.0
2.0;603.0
3.0;618.0
4.0;636.0
5.0;662.0
6.0;686.0
7.0;701.0
8.0;706.0
9.0;704.0
10.0;689.0
11.0;663.0
12.0;632.0
13.0;597.0
14.0;555.0
15.0;507.0
0.0;462.0
1.0;422.0
2.0;390.0
3.0;368.0
4.0;355.0
5.0;345.0
6.0;344.0
7.0;350.0
8.0;360.0
9.0;367.0
10.0;374.0
11.0;381.0
12.0;381.0
13.0;376.0
14.0;369.0
15.0;360.0
0.0;355.0
1.0;356.0
2.0;359.0
3.0;363.0
4.0;364.0
5.0;365.0
6.0;370.0
7.0;381.0
8.0;393.0
9.0;402.0
10.0;410.0
11.0;419.0
12.0;422.0
13.0;425.0
14.0;448.0
15.0;499.0
0.0;534.0
1.0;536.0
2.0;523.0
3.0;506.0
4.0;489.0
5.0;477.0
6.0;469.0
7.0;472.0
8.0;492.0
9.0;509.0
10.0;516.0
11.0;524.0
12.0;529.0
13.0;531.0
14.0;530.0
15.0;530.0
0.0;526.0
1.0;522.0
2.0;520.0
3.0;514.0
4.0;510.0
5.0;509.0
6.0;505.0
7.0;500.0
8.0;500.0
9.0;510.0
10.0;528.0
11.0;547.0
12.0;572.0
13.0;587.0
14.0;586.0
15.0;580.0
0.0;575.0
1.0;563.0
2.0;553.0
3.0;546.0
4.0;537.0
5.0;533.0
6.0;534.0
7.0;533.0
8.0;533.0
9.0;540.0
10.0;552.0
11.0;560.0
12.0;564.0
13.0;568.0
14.0;566.0
15.0;563.0
0.0;561.0
1.0;563.0
2.0;560.0
3.0;555.0
4.0;547.0
5.0;542.0
6.0;544.0
7.0;548.0
8.0;551.0
9.0;560.0
10.0;570.0
11.0;575.0
12.0;579.0
13.0;578.0
14.0;578.0
15.0;574.0
0.0;575.0
1.0;584.0
2.0;579.0
3.0;568.0
4.0;558.0
5.0;559.0
6.0;571.0
7.0;587.0
8.0;592.0
9.0;591.0
10.0;591.0
11.0;597.0
12.0;605.0
13.0;613.0
14.0;619.0
15.0;622.0
0.0;630.0
1.0;634.0
2.0;634.0
3.0;629.0
4.0;620.0
5.0;610.0
6.0;596.0
7.0;587.0
8.0;589.0
9.0;593.0
10.0;595.0
11.0;606.0
12.0;617.0
13.0;620.0
14.0;624.0
15.0;632.0
0.0;630.0
1.0;623.0
2.0;616.0
3.0;606.0
4.0;598.0
5.0;596.0
6.0;594.0
7.0;591.0
8.0;589.0
9.0;591.0
10.0;595.0
11.0;604.0
12.0;613.0
13.0;617.0
14.0;620.0
15.0;624.0
0.0;627.0
1.0;625.0
2.0;622.0
3.0;624.0
4.0;620.0
5.0;609.0
6.0;598.0
7.0;583.0
8.0;574.0
9.0;572.0
10.0;565.0
11.0;557.0
12.0;555.0
13.0;556.0
14.0;556.0
15.0;564.0
0.0;573.0
1.0;575.0
2.0;574.0
3.0;575.0
4.0;569.0
5.0;560.0
6.0;550.0
7.0;545.0
8.0;542.0
9.0;547.0
10.0;556.0
11.0;560.0
12.0;563.0
13.0;576.0
14.0;582.0
15.0;579.0
0.0;569.0
1.0;558.0
2.0;545.0
3.0;538.0
4.0;529.0
5.0;517.0
6.0;506.0
7.0;502.0
8.0;500.0
9.0;500.0
10.0;502.0
11.0;501.0
12.0;499.0
13.0;500.0
14.0;505.0
15.0;510.0
0.0;513.0
1.0;519.0
2.0;524.0
3.0;525.0
4.0;527.0
5.0;529.0
6.0;527.0
7.0;520.0
8.0;515.0
9.0;512.0
10.0;514.0
11.0;519.0
12.0;524.0
13.0;522.0
14.0;522.0
15.0;526.0
0.0;529.0
1.0;532.0
2.0;537.0
3.0;540.0
4.0;539.0
5.0;542.0
6.0;544.0
7.0;545.0
8.0;540.0
9.0;531.0
10.0;518.0
11.0;515.0
12.0;534.0
13.0;570.0
14.0;607.0
15.0;615.0
0.0;603.0
1.0;586.0
2.0;571.0
3.0;555.0
4.0;535.0
5.0;523.0
6.0;518.0
7.0;510.0
8.0;499.0
9.0;488.0
10.0;479.0
11.0;478.0
12.0;480.0
13.0;481.0
14.0;483.0
15.0;494.0
0.0;504.0
1.0;498.0
2.0;497.0
3.0;507.0
4.0;509.0
5.0;502.0
6.0;499.0
7.0;499.0
8.0;503.0
9.0;519.0
10.0;548.0
11.0;550.0
12.0;515.0
13.0;472.0
14.0;435.0
15.0;413.0
0.0;405.0
1.0;403.0
2.0;408.0
3.0;415.0
4.0;415.0
5.0;414.0
6.0;413.0
7.0;422.0
8.0;431.0
9.0;435.0
10.0;440.0
11.0;444.0
12.0;444.0
13.0;441.0
14.0;430.0
15.0;414.0
0.0;404.0
1.0;405.0
2.0;402.0
3.0;396.0
4.0;395.0
5.0;403.0
6.0;412.0
7.0;420.0
8.0;425.0
9.0;422.0
10.0;421.0
11.0;423.0
12.0;421.0
13.0;424.0
14.0;426.0
15.0;423.0
0.0;416.0
1.0;411.0
2.0;414.0
3.0;416.0
4.0;419.0
5.0;419.0
6.0;419.0
7.0;419.0
8.0;422.0
9.0;426.0
10.0;426.0
11.0;423.0
12.0;420.0
13.0;415.0
14.0;411.0
15.0;411.0
0.0;409.0
1.0;407.0
2.0;411.0
3.0;416.0
4.0;417.0
5.0;419.0
6.0;416.0
7.0;409.0
8.0;398.0
9.0;385.0
10.0;371.0
11.0;363.0
12.0;359.0
13.0;356.0
14.0;352.0
15.0;355.0
0.0;361.0
1.0;360.0
2.0;363.0
3.0;374.0
4.0;366.0
5.0;359.0
6.0;365.0
7.0;368.0
8.0;378.0
9.0;379.0
10.0;380.0
11.0;393.0
12.0;410.0
13.0;432.0
14.0;453.0
15.0;471.0
0.0;491.0
1.0;511.0
2.0;527.0
3.0;544.0
4.0;559.0
5.0;572.0
6.0;595.0
7.0;625.0
8.0;640.0
9.0;645.0
10.0;638.0
11.0;622.0
12.0;610.0
13.0;597.0
14.0;597.0
15.0;600.0
0.0;576.0
1.0;543.0
2.0;499.0
3.0;463.0
4.0;433.0
5.0;390.0
6.0;348.0
7.0;327.0
8.0;318.0
9.0;311.0
10.0;306.0
11.0;303.0
12.0;299.0
13.0;296.0
14.0;299.0
15.0;301.0
0.0;310.0
1.0;323.0
2.0;335.0
3.0;343.0
4.0;349.0
5.0;357.0
6.0;361.0
7.0;368.0
8.0;374.0
9.0;380.0
10.0;386.0
11.0;394.0
12.0;401.0
13.0;407.0
14.0;412.0
15.0;417.0
0.0;418.0
1.0;426.0
2.0;433.0
3.0;436.0
4.0;440.0
5.0;450.0
6.0;465.0
7.0;475.0
8.0;483.0
9.0;490.0
10.0;497.0
11.0;504.0
12.0;509.0
13.0;510.0
14.0;509.0
15.0;512.0
0.0;516.0
1.0;515.0
2.0;523.0
3.0;532.0
4.0;533.0
5.0;533.0
6.0;537.0
7.0;539.0
8.0;543.0
9.0;548.0
10.0;551.0
11.0;546.0
12.0;540.0
13.0;535.0
14.0;531.0
15.0;528.0
0.0;526.0
1.0;525.0
2.0;527.0
3.0;531.0
4.0;532.0
5.0;532.0
6.0;532.0
7.0;536.0
8.0;540.0
9.0;546.0
10.0;558.0
11.0;574.0
12.0;578.0
13.0;574.0
14.0;575.0
15.0;574.0
0.0;567.0
1.0;557.0
2.0;554.0
3.0;559.0
4.0;566.0
5.0;566.0
6.0;564.0
7.0;571.0
8.0;575.0
9.0;575.0
10.0;578.0
11.0;582.0
12.0;585.0
13.0;588.0
14.0;590.0
15.0;591.0
0.0;592.0
1.0;597.0
2.0;599.0
3.0;603.0
4.0;607.0
5.0;611.0
6.0;613.0
7.0;615.0
8.0;620.0
9.0;624.0
10.0;625.0
11.0;624.0
12.0;629.0
13.0;632.0
14.0;637.0
15.0;642.0
0.0;644.0
1.0;644.0
2.0;643.0
3.0;644.0
4.0;646.0
5.0;648.0
6.0;649.0
7.0;649.0
8.0;649.0
9.0;649.0
10.0;649.0
11.0;653.0
12.0;659.0
13.0;659.0
14.0;659.0
15.0;662.0
0.0;664.0
1.0;659.0
2.0;654.0
3.0;648.0
4.0;641.0
5.0;639.0
6.0;639.0
7.0;636.0
8.0;631.0
9.0;630.0
10.0;635.0
11.0;638.0
12.0;636.0
13.0;630.0
14.0;621.0
15.0;619.0
0.0;625.0
1.0;636.0
2.0;641.0
3.0;655.0
4.0;668.0
5.0;680.0
6.0;690.0
7.0;698.0
8.0;704.0
9.0;721.0
10.0;751.0
11.0;785.0
12.0;790.0
13.0;783.0
14.0;776.0
15.0;756.0
0.0;729.0
1.0;702.0
2.0;681.0
3.0;672.0
4.0;666.0
5.0;659.0
6.0;652.0
7.0;649.0
8.0;647.0
9.0;652.0
10.0;656.0
11.0;657.0
12.0;658.0
13.0;655.0
14.0;654.0
15.0;650.0
0.0;645.0
1.0;640.0
2.0;631.0
3.0;619.0
4.0;609.0
5.0;605.0
6.0;603.0
7.0;599.0
8.0;596.0
9.0;593.0
10.0;593.0
11.0;596.0
12.0;593.0
13.0;590.0
14.0;591.0
15.0;588.0
0.0;578.0
1.0;574.0
2.0;569.0
3.0;560.0
4.0;552.0
5.0;547.0
6.0;545.0
7.0;541.0
8.0;542.0
9.0;546.0
10.0;547.0
11.0;549.0
12.0;551.0
13.0;553.0
14.0;559.0
15.0;569.0
0.0;574.0
1.0;572.0
2.0;571.0
3.0;568.0
4.0;564.0
5.0;563.0
6.0;561.0
7.0;557.0
8.0;557.0
9.0;555.0
10.0;551.0
11.0;542.0
12.0;549.0
13.0;583.0
14.0;618.0
15.0;629.0
0.0;627.0
1.0;608.0
2.0;582.0
3.0;560.0
4.0;539.0
5.0;525.0
6.0;522.0
7.0;519.0
8.0;512.0
9.0;511.0
10.0;511.0
11.0;508.0
12.0;511.0
13.0;513.0
14.0;516.0
15.0;524.0
0.0;540.0
1.0;545.0
2.0;540.0
3.0;536.0
4.0;536.0
5.0;533.0
6.0;517.0
7.0;490.0
8.0;462.0
9.0;443.0
10.0;435.0
11.0;435.0
12.0;438.0
13.0;441.0
14.0;446.0
15.0;449.0
0.0;456.0
1.0;458.0
2.0;458.0
3.0;457.0
4.0;455.0
5.0;452.0
6.0;444.0
7.0;433.0
8.0;423.0
9.0;413.0
10.0;412.0
11.0;415.0
12.0;415.0
13.0;416.0
14.0;421.0
15.0;426.0
0.0;430.0
1.0;433.0
2.0;434.0
3.0;434.0
4.0;436.0
5.0;438.0
6.0;437.0
7.0;430.0
8.0;426.0
9.0;422.0
10.0;416.0
11.0;419.0
12.0;423.0
13.0;425.0
14.0;430.0
15.0;438.0
0.0;446.0
1.0;451.0
2.0;455.0
3.0;458.0
4.0;460.0
5.0;464.0
6.0;463.0
7.0;455.0
8.0;446.0
9.0;436.0
10.0;423.0
11.0;420.0
12.0;423.0
13.0;429.0
14.0;432.0
15.0;440.0
0.0;446.0
1.0;447.0
2.0;451.0
3.0;454.0
4.0;452.0
5.0;446.0
6.0;449.0
7.0;455.0
8.0;459.0
9.0;457.0
10.0;448.0
11.0;450.0
12.0;459.0
13.0;459.0
14.0;445.0
15.0;423.0
0.0;402.0
1.0;371.0
2.0;344.0
3.0;333.0
4.0;323.0
5.0;310.0
6.0;304.0
7.0;305.0
8.0;308.0
9.0;312.0
10.0;319.0
11.0;333.0
12.0;348.0
13.0;368.0
14.0;388.0
15.0;404.0
0.0;420.0
1.0;447.0
2.0;470.0
3.0;490.0
4.0;513.0
5.0;540.0
6.0;566.0
7.0;595.0
8.0;625.0
9.0;645.0
10.0;659.0
11.0;670.0
12.0;670.0
13.0;657.0
14.0;644.0
15.0;625.0
0.0;596.0
1.0;565.0
2.0;531.0
3.0;493.0
4.0;455.0
5.0;420.0
6.0;394.0
7.0;377.0
8.0;367.0
9.0;355.0
10.0;347.0
11.0;348.0
12.0;351.0
13.0;352.0
14.0;351.0
15.0;349.0
0.0;341.0
1.0;331.0
2.0;334.0
3.0;340.0
4.0;344.0
5.0;351.0
6.0;353.0
7.0;353.0
8.0;356.0
9.0;357.0
10.0;352.0
11.0;351.0
12.0;353.0
13.0;353.0
14.0;353.0
15.0;354.0
0.0;354.0
1.0;355.0
2.0;361.0
3.0;371.0
4.0;379.0
5.0;386.0
6.0;401.0
7.0;416.0
8.0;429.0
9.0;435.0
10.0;441.0
11.0;445.0
12.0;447.0
13.0;447.0
14.0;442.0
15.0;439.0
0.0;442.0
1.0;439.0
2.0;433.0
3.0;437.0
4.0;448.0
5.0;467.0
6.0;493.0
7.0;516.0
8.0;537.0
9.0;532.0
10.0;519.0
11.0;508.0
12.0;505.0
13.0;512.0
14.0;517.0
15.0;515.0
0.0;512.0
1.0;511.0
2.0;508.0
3.0;502.0
4.0;498.0
5.0;500.0
6.0;506.0
7.0;510.0
8.0;511.0
9.0;510.0
10.0;516.0
11.0;518.0
12.0;519.0
13.0;517.0
14.0;516.0
15.0;518.0
0.0;518.0
1.0;517.0
2.0;512.0
3.0;505.0
4.0;503.0
5.0;508.0
6.0;514.0
7.0;519.0
8.0;521.0
9.0;523.0
10.0;526.0
11.0;532.0
12.0;537.0
13.0;540.0
14.0;543.0
15.0;543.0
0.0;542.0
1.0;541.0
2.0;538.0
3.0;529.0
4.0;522.0
5.0;525.0
6.0;529.0
7.0;533.0
8.0;538.0
9.0;541.0
10.0;546.0
11.0;552.0
12.0;556.0
13.0;557.0
14.0;556.0
15.0;557.0
0.0;565.0
1.0;571.0
2.0;574.0
3.0;572.0
4.0;569.0
5.0;568.0
6.0;570.0
7.0;569.0
8.0;572.0
9.0;583.0
10.0;590.0
11.0;595.0
12.0;598.0
13.0;597.0
14.0;593.0
15.0;594.0
0.0;598.0
1.0;592.0
2.0;583.0
3.0;576.0
4.0;568.0
5.0;560.0
6.0;556.0
7.0;553.0
8.0;560.0
9.0;580.0
10.0;605.0
11.0;607.0
12.0;597.0
13.0;588.0
14.0;585.0
15.0;583.0
0.0;582.0
1.0;577.0
2.0;571.0
3.0;565.0
4.0;561.0
5.0;553.0
6.0;550.0
7.0;550.0
8.0;547.0
9.0;548.0
10.0;550.0
11.0;552.0
12.0;561.0
13.0;568.0
14.0;575.0
15.0;578.0
0.0;575.0
1.0;574.0
2.0;568.0
3.0;563.0
4.0;560.0
5.0;558.0
6.0;552.0
7.0;547.0
8.0;545.0
9.0;543.0
10.0;544.0
11.0;548.0
12.0;550.0
13.0;549.0
14.0;548.0
15.0;547.0
0.0;546.0
1.0;548.0
2.0;552.0
3.0;551.0
4.0;549.0
5.0;546.0
6.0;539.0
7.0;537.0
8.0;542.0
9.0;543.0
10.0;541.0
11.0;537.0
12.0;534.0
13.0;531.0
14.0;533.0
15.0;538.0
0.0;545.0
1.0;552.0
2.0;557.0
3.0;557.0
4.0;558.0
5.0;559.0
6.0;560.0
7.0;557.0
8.0;553.0
9.0;553.0
10.0;550.0
11.0;548.0
12.0;554.0
13.0;565.0
14.0;570.0
15.0;570.0
0.0;566.0
1.0;565.0
2.0;572.0
3.0;581.0
4.0;578.0
5.0;575.0
6.0;568.0
7.0;558.0
8.0;550.0
9.0;554.0
10.0;567.0
11.0;577.0
12.0;603.0
13.0;626.0
14.0;636.0
15.0;633.0
0.0;623.0
1.0;610.0
2.0;593.0
3.0;578.0
4.0;569.0
5.0;566.0
6.0;564.0
7.0;565.0
8.0;558.0
9.0;554.0
10.0;556.0
11.0;556.0
12.0;552.0
13.0;551.0
14.0;548.0
15.0;542.0
0.0;545.0
1.0;558.0
2.0;574.0
3.0;573.0
4.0;568.0
5.0;561.0
6.0;561.0
7.0;560.0
8.0;550.0
9.0;531.0
10.0;511.0
11.0;492.0
12.0;477.0
13.0;467.0
14.0;463.0
15.0;462.0
0.0;458.0
1.0;452.0
2.0;448.0
3.0;445.0
4.0;441.0
5.0;440.0
6.0;444.0
7.0;448.0
8.0;453.0
9.0;455.0
10.0;452.0
11.0;453.0
12.0;455.0
13.0;455.0
14.0;458.0
15.0;461.0
0.0;458.0
1.0;455.0
2.0;460.0
3.0;461.0
4.0;457.0
5.0;453.0
6.0;449.0
7.0;444.0
8.0;442.0
9.0;444.0
10.0;446.0
11.0;447.0
12.0;450.0
13.0;456.0
14.0;460.0
15.0;462.0
0.0;465.0
1.0;467.0
2.0;471.0
3.0;479.0
4.0;482.0
5.0;483.0
6.0;491.0
7.0;501.0
8.0;509.0
9.0;505.0
10.0;492.0
11.0;495.0
12.0;512.0
13.0;524.0
14.0;524.0
15.0;510.0
0.0;496.0
1.0;481.0
2.0;465.0
3.0;458.0
4.0;455.0
5.0;471.0
6.0;497.0
7.0;502.0
8.0;502.0
9.0;508.0
10.0;520.0
11.0;520.0
12.0;510.0
13.0;498.0
14.0;487.0
15.0;475.0
0.0;463.0
1.0;455.0
2.0;443.0
3.0;430.0
4.0;427.0
5.0;422.0
6.0;412.0
7.0;408.0
8.0;403.0
9.0;401.0
10.0;407.0
11.0;417.0
12.0;421.0
13.0;429.0
14.0;448.0
15.0;469.0
0.0;496.0
1.0;523.0
2.0;548.0
3.0;572.0
4.0;597.0
5.0;618.0
6.0;629.0
7.0;646.0
8.0;676.0
9.0;707.0
10.0;740.0
11.0;776.0
12.0;803.0
13.0;818.0
14.0;828.0
15.0;830.0
0.0;821.0
1.0;807.0
2.0;783.0
3.0;752.0
4.0;716.0
5.0;674.0
6.0;630.0
7.0;585.0
8.0;545.0
9.0;518.0
10.0;497.0
11.0;486.0
12.0;484.0
13.0;482.0
14.0;477.0
15.0;478.0
0.0;478.0
1.0;481.0
2.0;486.0
3.0;493.0
4.0;497.0
5.0;500.0
6.0;507.0
7.0;510.0
8.0;509.0
9.0;507.0
10.0;507.0
11.0;510.0
12.0;519.0
13.0;529.0
14.0;528.0
15.0;530.0
0.0;541.0
1.0;548.0
2.0;550.0
3.0;549.0
4.0;541.0
5.0;533.0
6.0;532.0
7.0;532.0
8.0;543.0
9.0;560.0
10.0;568.0
11.0;582.0
12.0;593.0
13.0;594.0
14.0;590.0
15.0;584.0
0.0;588.0
1.0;593.0
2.0;591.0
3.0;599.0
4.0;608.0
5.0;608.0
6.0;610.0
7.0;618.0
8.0;620.0
9.0;609.0
10.0;601.0
11.0;598.0
12.0;606.0
13.0;613.0
14.0;613.0
15.0;608.0
0.0;601.0
1.0;595.0
2.0;588.0
3.0;579.0
4.0;565.0
5.0;558.0
6.0;556.0
7.0;553.0
8.0;547.0
9.0;539.0
10.0;532.0
11.0;529.0
12.0;526.0
13.0;524.0
14.0;521.0
15.0;513.0
0.0;497.0
1.0;483.0
2.0;478.0
3.0;472.0
4.0;466.0
5.0;458.0
6.0;449.0
7.0;444.0
8.0;440.0
9.0;438.0
10.0;433.0
11.0;424.0
12.0;417.0
13.0;412.0
14.0;405.0
15.0;402.0
0.0;401.0
1.0;395.0
2.0;391.0
3.0;388.0
4.0;387.0
5.0;390.0
6.0;397.0
7.0;399.0
8.0;400.0
9.0;402.0
10.0;403.0
11.0;398.0
12.0;399.0
13.0;405.0
14.0;413.0
15.0;419.0
0.0;422.0
1.0;425.0
2.0;426.0
3.0;431.0
4.0;436.0
5.0;437.0
6.0;433.0
7.0;435.0
8.0;435.0
9.0;437.0
10.0;442.0
11.0;446.0
12.0;453.0
13.0;464.0
14.0;471.0
15.0;475.0
0.0;478.0
1.0;481.0
2.0;485.0
3.0;487.0
4.0;490.0
5.0;498.0
6.0;512.0
7.0;521.0
8.0;519.0
9.0;524.0
10.0;532.0
11.0;536.0
12.0;538.0
13.0;540.0
14.0;540.0
15.0;546.0
0.0;558.0
1.0;561.0
2.0;556.0
3.0;552.0
4.0;556.0
5.0;558.0
6.0;552.0
7.0;544.0
8.0;538.0
9.0;534.0
10.0;529.0
11.0;523.0
12.0;519.0
13.0;510.0
14.0;503.0
15.0;493.0
0.0;487.0
1.0;487.0
2.0;487.0
3.0;492.0
4.0;493.0
5.0;496.0
6.0;496.0
7.0;488.0
8.0;484.0
9.0;476.0
10.0;468.0
11.0;460.0
12.0;454.0
13.0;449.0
14.0;442.0
15.0;433.0
0.0;432.0
1.0;436.0
2.0;444.0
3.0;448.0
4.0;446.0
5.0;444.0
6.0;443.0
7.0;442.0
8.0;444.0
9.0;445.0
10.0;443.0
11.0;443.0
12.0;444.0
13.0;445.0
14.0;445.0
15.0;448.0
0.0;451.0
1.0;454.0
2.0;455.0
3.0;461.0
4.0;465.0
5.0;463.0
6.0;464.0
7.0;469.0
8.0;470.0
9.0;472.0
10.0;474.0
11.0;473.0
12.0;474.0
13.0;474.0
14.0;469.0
15.0;463.0
0.0;462.0
1.0;466.0
2.0;464.0
3.0;468.0
4.0;478.0
5.0;483.0
6.0;492.0
7.0;505.0
8.0;516.0
9.0;523.0
10.0;527.0
11.0;529.0
12.0;529.0
13.0;534.0
14.0;542.0
15.0;547.0
0.0;550.0
1.0;551.0
2.0;551.0
3.0;551.0
4.0;549.0
5.0;544.0
6.0;535.0
7.0;528.0
8.0;530.0
9.0;537.0
10.0;559.0
11.0;576.0
12.0;582.0
13.0;584.0
14.0;577.0
15.0;553.0
0.0;525.0
1.0;505.0
2.0;492.0
3.0;478.0
4.0;475.0
5.0;478.0
6.0;473.0
7.0;466.0
8.0;467.0
9.0;475.0
10.0;478.0
11.0;480.0
12.0;484.0
13.0;487.0
14.0;484.0
15.0;482.0
0.0;473.0
1.0;460.0
2.0;447.0
3.0;437.0
4.0;435.0
5.0;440.0
6.0;448.0
7.0;455.0
8.0;458.0
9.0;459.0
10.0;463.0
11.0;467.0
12.0;472.0
13.0;479.0
14.0;474.0
15.0;467.0
0.0;466.0
1.0;461.0
2.0;459.0
3.0;460.0
4.0;464.0
5.0;464.0
6.0;458.0
7.0;455.0
8.0;446.0
9.0;442.0
10.0;451.0
11.0;459.0
12.0;468.0
13.0;471.0
14.0;468.0
15.0;468.0
0.0;468.0
1.0;466.0
2.0;460.0
3.0;456.0
4.0;450.0
5.0;443.0
6.0;442.0
7.0;443.0
8.0;447.0
9.0;456.0
10.0;470.0
11.0;485.0
12.0;508.0
13.0;525.0
14.0;530.0
15.0;513.0
0.0;498.0
1.0;493.0
2.0;487.0
3.0;479.0
4.0;479.0
5.0;478.0
6.0;478.0
7.0;479.0
8.0;479.0
9.0;476.0
10.0;474.0
11.0;473.0
12.0;467.0
13.0;461.0
14.0;472.0
15.0;501.0
0.0;530.0
1.0;551.0
2.0;555.0
3.0;537.0
4.0;514.0
5.0;485.0
6.0;449.0
7.0;423.0
8.0;411.0
9.0;403.0
10.0;397.0
11.0;399.0
12.0;408.0
13.0;412.0
14.0;417.0
15.0;424.0
0.0;427.0
1.0;434.0
2.0;441.0
3.0;442.0
4.0;441.0
5.0;451.0
6.0;472.0
7.0;493.0
8.0;524.0
9.0;560.0
10.0;592.0
11.0;615.0
12.0;636.0
13.0;663.0
14.0;691.0
15.0;722.0
0.0;748.0
1.0;755.0
2.0;753.0
3.0;748.0
4.0;737.0
5.0;721.0
6.0;695.0
7.0;666.0
8.0;630.0
9.0;592.0
10.0;548.0
11.0;505.0
12.0;472.0
13.0;443.0
14.0;417.0
15.0;395.0
0.0;383.0
1.0;371.0
2.0;366.0
3.0;363.0
4.0;363.0
5.0;362.0
6.0;352.0
7.0;342.0
8.0;333.0
9.0;330.0
10.0;335.0
11.0;344.0
12.0;355.0
13.0;370.0
14.0;383.0
15.0;385.0
0.0;382.0
1.0;376.0
2.0;367.0
3.0;359.0
4.0;360.0
5.0;373.0
6.0;387.0
7.0;402.0
8.0;422.0
9.0;450.0
10.0;464.0
11.0;463.0
12.0;462.0
13.0;470.0
14.0;476.0
15.0;479.0
0.0;486.0
1.0;496.0
2.0;502.0
3.0;499.0
4.0;496.0
5.0;494.0
6.0;489.0
7.0;490.0
8.0;495.0
9.0;498.0
10.0;500.0
11.0;511.0
12.0;525.0
13.0;542.0
14.0;561.0
15.0;584.0
0.0;600.0
1.0;605.0
2.0;606.0
3.0;598.0
4.0;580.0
5.0;558.0
6.0;543.0
7.0;537.0
8.0;535.0
9.0;531.0
10.0;526.0
11.0;525.0
12.0;528.0
13.0;533.0
14.0;536.0
15.0;543.0
0.0;551.0
1.0;556.0
2.0;560.0
3.0;557.0
4.0;546.0
5.0;532.0
6.0;520.0
7.0;509.0
8.0;498.0
9.0;492.0
10.0;486.0
11.0;482.0
12.0;478.0
13.0;473.0
14.0;465.0
15.0;462.0
0.0;464.0
1.0;468.0
2.0;470.0
3.0;473.0
4.0;476.0
5.0;476.0
6.0;474.0
7.0;470.0
8.0;463.0
9.0;463.0
10.0;465.0
11.0;462.0
12.0;460.0
13.0;466.0
14.0;475.0
15.0;480.0
0.0;489.0
1.0;498.0
2.0;505.0
3.0;514.0
4.0;527.0
5.0;538.0
6.0;542.0
7.0;545.0
8.0;550.0
9.0;554.0
10.0;558.0
11.0;564.0
12.0;565.0
13.0;563.0
14.0;570.0
15.0;583.0
0.0;611.0
1.0;645.0
2.0;678.0
3.0;699.0
4.0;705.0
5.0;706.0
6.0;703.0
7.0;697.0
8.0;687.0
9.0;676.0
10.0;665.0
11.0;661.0
12.0;658.0
13.0;655.0
14.0;657.0
15.0;660.0
0.0;664.0
1.0;668.0
2.0;673.0
3.0;676.0
4.0;679.0
5.0;685.0
6.0;688.0
7.0;685.0
8.0;684.0
9.0;679.0
10.0;676.0
11.0;681.0
12.0;683.0
13.0;683.0
14.0;681.0
15.0;676.0
0.0;668.0
1.0;667.0
2.0;677.0
3.0;686.0
4.0;686.0
5.0;687.0
6.0;684.0
7.0;681.0
8.0;684.0
9.0;693.0
10.0;703.0
11.0;704.0
12.0;705.0
13.0;698.0
14.0;690.0
15.0;694.0
0.0;713.0
1.0;736.0
2.0;772.0
3.0;796.0
4.0;791.0
5.0;774.0
6.0;751.0
7.0;729.0
8.0;716.0
9.0;714.0
10.0;713.0
11.0;710.0
12.0;704.0
13.0;701.0
14.0;698.0
15.0;697.0
0.0;700.0
1.0;702.0
2.0;702.0
3.0;702.0
4.0;707.0
5.0;707.0
6.0;702.0
7.0;692.0
8.0;684.0
9.0;672.0
10.0;662.0
11.0;647.0
12.0;628.0
13.0;615.0
14.0;604.0
15.0;593.0
0.0;586.0
1.0;581.0
2.0;577.0
3.0;568.0
4.0;564.0
5.0;563.0
6.0;564.0
7.0;569.0
8.0;578.0
9.0;579.0
10.0;574.0
11.0;568.0
12.0;559.0
13.0;552.0
14.0;552.0
15.0;565.0
0.0;586.0
1.0;594.0
2.0;606.0
3.0;613.0
4.0;609.0
5.0;601.0
6.0;596.0
7.0;595.0
8.0;588.0
9.0;573.0
10.0;553.0
11.0;536.0
12.0;529.0
13.0;520.0
14.0;509.0
15.0;507.0
0.0;513.0
1.0;517.0
2.0;523.0
3.0;541.0
4.0;541.0
5.0;534.0
6.0;526.0
7.0;505.0
8.0;482.0
9.0;465.0
10.0;451.0
11.0;437.0
12.0;423.0
13.0;409.0
14.0;396.0
15.0;385.0
0.0;377.0
1.0;368.0
2.0;361.0
3.0;356.0
4.0;350.0
5.0;344.0
6.0;342.0
7.0;340.0
8.0;343.0
9.0;357.0
10.0;358.0
11.0;351.0
12.0;348.0
13.0;346.0
14.0;340.0
15.0;328.0
0.0;321.0
1.0;315.0
2.0;312.0
3.0;315.0
4.0;317.0
5.0;318.0
6.0;319.0
7.0;326.0
8.0;334.0
9.0;342.0
10.0;348.0
11.0;350.0
12.0;347.0
13.0;346.0
14.0;346.0
15.0;343.0
0.0;340.0
1.0;341.0
2.0;341.0
3.0;337.0
4.0;339.0
5.0;344.0
6.0;344.0
7.0;345.0
8.0;348.0
9.0;358.0
10.0;366.0
11.0;371.0
12.0;374.0
13.0;374.0
14.0;380.0
15.0;386.0
0.0;386.0
1.0;383.0
2.0;387.0
3.0;388.0
4.0;387.0
5.0;382.0
6.0;380.0
7.0;372.0
8.0;374.0
9.0;378.0
10.0;377.0
11.0;383.0
12.0;388.0
13.0;393.0
14.0;399.0
15.0;402.0
0.0;397.0
1.0;390.0
2.0;387.0
3.0;382.0
4.0;376.0
5.0;377.0
6.0;385.0
7.0;396.0
8.0;396.0
9.0;387.0
10.0;378.0
11.0;371.0
12.0;374.0
13.0;378.0
14.0;383.0
15.0;390.0
0.0;387.0
1.0;384.0
2.0;389.0
3.0;397.0
4.0;400.0
5.0;396.0
6.0;396.0
7.0;397.0
8.0;391.0
9.0;391.0
10.0;401.0
11.0;419.0
12.0;447.0
13.0;473.0
14.0;492.0
15.0;516.0
0.0;545.0
1.0;567.0
2.0;585.0
3.0;612.0
4.0;644.0
5.0;677.0
6.0;715.0
7.0;753.0
8.0;782.0
9.0;796.0
10.0;802.0
11.0;792.0
12.0;774.0
13.0;748.0
14.0;728.0
15.0;705.0
0.0;673.0
1.0;636.0
2.0;596.0
3.0;557.0
4.0;523.0
5.0;498.0
6.0;481.0
7.0;469.0
8.0;462.0
9.0;460.0
10.0;463.0
11.0;472.0
12.0;480.0
13.0;480.0
14.0;479.0
15.0;477.0
0.0;482.0
1.0;497.0
2.0;513.0
3.0;520.0
4.0;525.0
5.0;526.0
6.0;523.0
7.0;521.0
8.0;524.0
9.0;525.0
10.0;530.0
11.0;543.0
12.0;557.0
13.0;568.0
14.0;576.0
15.0;578.0
0.0;574.0
1.0;567.0
2.0;567.0
3.0;572.0
4.0;582.0
5.0;591.0
6.0;597.0
7.0;600.0
8.0;593.0
9.0;586.0
10.0;585.0
11.0;590.0
12.0;619.0
13.0;670.0
14.0;712.0
15.0;718.0
0.0;688.0
1.0;659.0
2.0;653.0
3.0;657.0
4.0;653.0
5.0;648.0
6.0;652.0
7.0;651.0
8.0;645.0
9.0;646.0
10.0;652.0
11.0;657.0
12.0;660.0
13.0;662.0
14.0;659.0
15.0;655.0
0.0;652.0
1.0;649.0
2.0;647.0
3.0;644.0
4.0;636.0
5.0;627.0
6.0;619.0
7.0;615.0
8.0;613.0
9.0;613.0
10.0;620.0
11.0;622.0
12.0;618.0
13.0;614.0
14.0;605.0
15.0;602.0
0.0;606.0
1.0;607.0
2.0;599.0
3.0;593.0
4.0;592.0
5.0;588.0
6.0;585.0
7.0;585.0
8.0;584.0
9.0;586.0
10.0;590.0
11.0;594.0
12.0;594.0
13.0;590.0
14.0;588.0
15.0;590.0
0.0;593.0
1.0;595.0
2.0;594.0
3.0;586.0
4.0;583.0
5.0;583.0
6.0;577.0
7.0;575.0
8.0;576.0
9.0;575.0
10.0;574.0
11.0;579.0
12.0;588.0
13.0;599.0
14.0;607.0
15.0;609.0
0.0;611.0
1.0;618.0
2.0;623.0
3.0;625.0
4.0;623.0
5.0;626.0
6.0;627.0
7.0;623.0
8.0;609.0
9.0;593.0
10.0;590.0
11.0;593.0
12.0;604.0
13.0;601.0
14.0;590.0
15.0;578.0
0.0;574.0
1.0;566.0
2.0;561.0
3.0;556.0
4.0;553.0
5.0;553.0
6.0;558.0
7.0;554.0
8.0;547.0
9.0;531.0
10.0;515.0
11.0;508.0
12.0;509.0
13.0;518.0
14.0;514.0
15.0;503.0
0.0;500.0
1.0;499.0
2.0;497.0
3.0;494.0
4.0;487.0
5.0;473.0
6.0;466.0
7.0;464.0
8.0;453.0
9.0;435.0
10.0;419.0
11.0;415.0
12.0;417.0
13.0;420.0
14.0;418.0
15.0;410.0
0.0;406.0
1.0;417.0
2.0;432.0
3.0;443.0
4.0;446.0
5.0;441.0
6.0;430.0
7.0;418.0
8.0;410.0
9.0;408.0
10.0;399.0
11.0;397.0
12.0;405.0
13.0;415.0
14.0;423.0
15.0;423.0
0.0;423.0
1.0;428.0
2.0;430.0
3.0;432.0
4.0;440.0
5.0;444.0
6.0;447.0
7.0;444.0
8.0;444.0
9.0;439.0
10.0;430.0
11.0;428.0
12.0;428.0
13.0;432.0
14.0;438.0
15.0;446.0
0.0;454.0
1.0;464.0
2.0;473.0
3.0;478.0
4.0;478.0
5.0;476.0
6.0;478.0
7.0;480.0
8.0;482.0
9.0;477.0
10.0;470.0
11.0;467.0
12.0;465.0
13.0;468.0
14.0;474.0
15.0;479.0
0.0;491.0
1.0;497.0
2.0;504.0
3.0;515.0
4.0;535.0
5.0;552.0
6.0;568.0
7.0;572.0
8.0;569.0
9.0;564.0
10.0;559.0
11.0;550.0
12.0;551.0
13.0;552.0
14.0;550.0
15.0;540.0
0.0;536.0
1.0;532.0
2.0;536.0
3.0;544.0
4.0;550.0
5.0;550.0
6.0;550.0
7.0;549.0
8.0;541.0
9.0;531.0
10.0;519.0
11.0;511.0
12.0;509.0
13.0;508.0
14.0;497.0
15.0;472.0
0.0;451.0
1.0;443.0
2.0;434.0
3.0;423.0
4.0;419.0
5.0;408.0
6.0;395.0
7.0;381.0
8.0;365.0
9.0;347.0
10.0;333.0
11.0;327.0
12.0;320.0
13.0;316.0
14.0;313.0
15.0;311.0
0.0;307.0
1.0;304.0
2.0;304.0
3.0;312.0
4.0;331.0
5.0;346.0
6.0;355.0
7.0;368.0
8.0;377.0
9.0;381.0
10.0;386.0
11.0;391.0
12.0;395.0
13.0;396.0
14.0;396.0
15.0;399.0
0.0;400.0
1.0;404.0
2.0;410.0
3.0;413.0
4.0;412.0
5.0;414.0
6.0;416.0
7.0;417.0
8.0;420.0
9.0;425.0
10.0;429.0
11.0;430.0
12.0;429.0
13.0;424.0
14.0;423.0
15.0;423.0
0.0;415.0
1.0;412.0
2.0;423.0
3.0;438.0
4.0;444.0
5.0;450.0
6.0;468.0
7.0;489.0
8.0;505.0
9.0;516.0
10.0;519.0
11.0;523.0
12.0;529.0
13.0;538.0
14.0;532.0
15.0;521.0
0.0;515.0
1.0;511.0
2.0;506.0
3.0;506.0
4.0;501.0
5.0;504.0
6.0;512.0
7.0;517.0
8.0;525.0
9.0;529.0
10.0;530.0
11.0;528.0
12.0;525.0
13.0;520.0
14.0;512.0
15.0;506.0
0.0;500.0
1.0;489.0
2.0;477.0
3.0;466.0
4.0;462.0
5.0;460.0
6.0;455.0
7.0;453.0
8.0;449.0
9.0;447.0
10.0;443.0
11.0;441.0
12.0;440.0
13.0;440.0
14.0;443.0
15.0;444.0
0.0;449.0
1.0;459.0
2.0;472.0
3.0;492.0
4.0;519.0
5.0;545.0
6.0;570.0
7.0;588.0
8.0;608.0
9.0;632.0
10.0;652.0
11.0;672.0
12.0;698.0
13.0;728.0
14.0;751.0
15.0;757.0
0.0;760.0
1.0;763.0
2.0;764.0
3.0;751.0
4.0;736.0
5.0;720.0
6.0;698.0
7.0;662.0
8.0;616.0
9.0;568.0
10.0;512.0
11.0;465.0
12.0;432.0
13.0;412.0
14.0;409.0
15.0;406.0
0.0;397.0
1.0;390.0
2.0;381.0
3.0;381.0
4.0;393.0
5.0;404.0
6.0;413.0
7.0;415.0
8.0;415.0
9.0;419.0
10.0;423.0
11.0;424.0
12.0;413.0
13.0;399.0
14.0;388.0
15.0;389.0
0.0;414.0
1.0;435.0
2.0;443.0
3.0;447.0
4.0;446.0
5.0;444.0
6.0;450.0
7.0;459.0
8.0;465.0
9.0;472.0
10.0;480.0
11.0;485.0
12.0;488.0
13.0;488.0
14.0;488.0
15.0;491.0
0.0;497.0
1.0;506.0
2.0;516.0
3.0;525.0
4.0;535.0
5.0;542.0
6.0;552.0
7.0;564.0
8.0;575.0
9.0;578.0
10.0;583.0
11.0;587.0
12.0;585.0
13.0;579.0
14.0;571.0
15.0;557.0
0.0;543.0
1.0;534.0
2.0;530.0
3.0;532.0
4.0;539.0
5.0;541.0
6.0;543.0
7.0;550.0
8.0;555.0
9.0;557.0
10.0;563.0
11.0;564.0
12.0;561.0
13.0;554.0
14.0;544.0
15.0;535.0
0.0;526.0
1.0;521.0
2.0;515.0
3.0;508.0
4.0;508.0
5.0;510.0
6.0;512.0
7.0;520.0
8.0;536.0
9.0;552.0
10.0;571.0
11.0;583.0
12.0;592.0
13.0;588.0
14.0;583.0
15.0;564.0
0.0;536.0
1.0;515.0
2.0;502.0
3.0;495.0
4.0;489.0
5.0;487.0
6.0;479.0
7.0;484.0
8.0;501.0
9.0;524.0
10.0;548.0
11.0;560.0
12.0;567.0
13.0;564.0
14.0;558.0
15.0;548.0
0.0;535.0
1.0;513.0
2.0;502.0
3.0;499.0
4.0;496.0
5.0;494.0
6.0;499.0
7.0;511.0
8.0;524.0
9.0;533.0
10.0;533.0
11.0;531.0
12.0;528.0
13.0;523.0
14.0;516.0
15.0;508.0
0.0;492.0
1.0;470.0
2.0;453.0
3.0;445.0
4.0;442.0
5.0;439.0
6.0;445.0
7.0;457.0
8.0;472.0
9.0;491.0
10.0;506.0
11.0;522.0
12.0;537.0
13.0;549.0
14.0;557.0
15.0;559.0
0.0;551.0
1.0;535.0
2.0;514.0
3.0;494.0
4.0;478.0
5.0;463.0
6.0;452.0
7.0;449.0
8.0;456.0
9.0;469.0
10.0;483.0
11.0;495.0
12.0;512.0
13.0;526.0
14.0;530.0
15.0;525.0
0.0;522.0
1.0;513.0
2.0;499.0
3.0;486.0
4.0;473.0
5.0;465.0
6.0;459.0
7.0;458.0
8.0;463.0
9.0;469.0
10.0;487.0
11.0;499.0
12.0;511.0
13.0;533.0
14.0;548.0
15.0;545.0
0.0;531.0
1.0;515.0
2.0;502.0
3.0;494.0
4.0;482.0
5.0;478.0
6.0;481.0
7.0;485.0
8.0;486.0
9.0;487.0
10.0;492.0
11.0;496.0
12.0;503.0
13.0;513.0
14.0;524.0
15.0;532.0
0.0;539.0
1.0;543.0
2.0;538.0
3.0;520.0
4.0;506.0
5.0;498.0
6.0;492.0
7.0;499.0
8.0;509.0
9.0;530.0
10.0;548.0
11.0;557.0
12.0;560.0
13.0;560.0
14.0;557.0
15.0;551.0
0.0;542.0
1.0;537.0
2.0;530.0
3.0;516.0
4.0;502.0
5.0;491.0
6.0;483.0
7.0;474.0
8.0;476.0
9.0;486.0
10.0;494.0
11.0;498.0
12.0;501.0
13.0;505.0
14.0;514.0
15.0;526.0
0.0;536.0
1.0;540.0
2.0;537.0
3.0;539.0
4.0;537.0
5.0;531.0
6.0;519.0
7.0;507.0
8.0;503.0
9.0;505.0
10.0;512.0
11.0;518.0
12.0;522.0
13.0;527.0
14.0;531.0
15.0;534.0
0.0;539.0
1.0;540.0
2.0;536.0
3.0;526.0
4.0;512.0
5.0;506.0
6.0;507.0
7.0;537.0
8.0;584.0
9.0;595.0
10.0;594.0
11.0;585.0
12.0;568.0
13.0;551.0
14.0;539.0
15.0;532.0
0.0;524.0
1.0;519.0
2.0;513.0
3.0;504.0
4.0;495.0
5.0;486.0
6.0;478.0
7.0;471.0
8.0;466.0
9.0;461.0
10.0;454.0
11.0;453.0
12.0;457.0
13.0;455.0
14.0;456.0
15.0;471.0
0.0;496.0
1.0;516.0
2.0;523.0
3.0;520.0
4.0;519.0
5.0;520.0
6.0;509.0
7.0;496.0
8.0;489.0
9.0;484.0
10.0;482.0
11.0;483.0
12.0;484.0
13.0;486.0
14.0;487.0
15.0;490.0
0.0;496.0
1.0;498.0
2.0;497.0
3.0;499.0
4.0;501.0
5.0;499.0
6.0;499.0
7.0;501.0
8.0;503.0
9.0;500.0
10.0;493.0
11.0;486.0
12.0;480.0
13.0;477.0
14.0;476.0
15.0;478.0
0.0;494.0
1.0;512.0
2.0;523.0
3.0;528.0
4.0;531.0
5.0;531.0
6.0;532.0
7.0;534.0
8.0;534.0
9.0;532.0
10.0;526.0
11.0;515.0
12.0;504.0
13.0;499.0
14.0;503.0
15.0;509.0
0.0;524.0
1.0;547.0
2.0;569.0
3.0;576.0
4.0;572.0
5.0;563.0
6.0;550.0
7.0;538.0
8.0;522.0
9.0;506.0
10.0;489.0
11.0;473.0
12.0;460.0
13.0;452.0
14.0;450.0
15.0;446.0
0.0;430.0
1.0;414.0
2.0;400.0
3.0;389.0
4.0;383.0
5.0;383.0
6.0;387.0
7.0;397.0
8.0;406.0
9.0;415.0
10.0;416.0
11.0;412.0
12.0;414.0
13.0;428.0
14.0;451.0
15.0;484.0
0.0;535.0
1.0;575.0
2.0;608.0
3.0;630.0
4.0;656.0
5.0;687.0
6.0;716.0
7.0;744.0
8.0;772.0
9.0;792.0
10.0;802.0
11.0;792.0
12.0;772.0
13.0;746.0
14.0;720.0
15.0;696.0
0.0;664.0
1.0;632.0
2.0;600.0
3.0;564.0
4.0;527.0
5.0;494.0
6.0;469.0
7.0;455.0
8.0;439.0
9.0;428.0
10.0;415.0
11.0;399.0
12.0;385.0
13.0;378.0
14.0;370.0
15.0;362.0
0.0;362.0
1.0;375.0
2.0;391.0
3.0;404.0
4.0;412.0
5.0;419.0
6.0;424.0
7.0;427.0
8.0;428.0
9.0;428.0
10.0;425.0
11.0;422.0
12.0;417.0
13.0;418.0
14.0;421.0
15.0;417.0
0.0;416.0
1.0;429.0
2.0;448.0
3.0;462.0
4.0;475.0
5.0;486.0
6.0;505.0
7.0;526.0
8.0;537.0
9.0;543.0
10.0;539.0
11.0;527.0
12.0;525.0
13.0;521.0
14.0;517.0
15.0;514.0
0.0;510.0
1.0;508.0
2.0;511.0
3.0;519.0
4.0;532.0
5.0;551.0
6.0;570.0
7.0;584.0
8.0;601.0
9.0;611.0
10.0;604.0
11.0;600.0
12.0;583.0
13.0;556.0
14.0;533.0
15.0;522.0
0.0;522.0
1.0;524.0
2.0;525.0
3.0;537.0
4.0;553.0
5.0;566.0
6.0;577.0
7.0;590.0
8.0;600.0
9.0;606.0
10.0;603.0
11.0;595.0
12.0;586.0
13.0;575.0
14.0;563.0
15.0;549.0
0.0;536.0
1.0;529.0
2.0;524.0
3.0;524.0
4.0;529.0
5.0;536.0
6.0;549.0
7.0;563.0
8.0;575.0
9.0;588.0
10.0;597.0
11.0;603.0
12.0;601.0
13.0;595.0
14.0;589.0
15.0;580.0
0.0;568.0
1.0;556.0
2.0;549.0
3.0;548.0
4.0;549.0
5.0;557.0
6.0;568.0
7.0;579.0
8.0;591.0
9.0;595.0
10.0;596.0
11.0;596.0
12.0;593.0
13.0;589.0
14.0;586.0
15.0;581.0
0.0;576.0
1.0;569.0
2.0;563.0
3.0;566.0
4.0;568.0
5.0;570.0
6.0;574.0
7.0;582.0
8.0;586.0
9.0;594.0
10.0;606.0
11.0;623.0
12.0;632.0
13.0;625.0
14.0;618.0
15.0;623.0
0.0;622.0
1.0;608.0
2.0;591.0
3.0;579.0
4.0;578.0
5.0;583.0
6.0;591.0
7.0;596.0
8.0;600.0
9.0;606.0
10.0;621.0
11.0;633.0
12.0;639.0
13.0;635.0
14.0;630.0
15.0;620.0
0.0;611.0
1.0;604.0
2.0;595.0
3.0;584.0
4.0;579.0
5.0;584.0
6.0;595.0
7.0;608.0
8.0;617.0
9.0;619.0
10.0;622.0
11.0;620.0
12.0;613.0
13.0;602.0
14.0;592.0
15.0;582.0
0.0;569.0
1.0;551.0
2.0;534.0
3.0;523.0
4.0;517.0
5.0;519.0
6.0;530.0
7.0;542.0
8.0;550.0
9.0;555.0
10.0;560.0
11.0;563.0
12.0;563.0
13.0;563.0
14.0;562.0
15.0;555.0
0.0;548.0
1.0;542.0
2.0;539.0
3.0;536.0
4.0;531.0
5.0;530.0
6.0;534.0
7.0;540.0
8.0;546.0
9.0;549.0
10.0;552.0
11.0;556.0
12.0;559.0
13.0;560.0
14.0;558.0
15.0;556.0
0.0;554.0
1.0;548.0
2.0;543.0
3.0;538.0
4.0;536.0
5.0;532.0
6.0;531.0
7.0;529.0
8.0;531.0
9.0;541.0
10.0;547.0
11.0;551.0
12.0;560.0
13.0;567.0
14.0;590.0
15.0;598.0
0.0;587.0
1.0;573.0
2.0;569.0
3.0;563.0
4.0;558.0
5.0;550.0
6.0;547.0
7.0;547.0
8.0;550.0
9.0;549.0
10.0;546.0
11.0;549.0
12.0;548.0
13.0;556.0
14.0;564.0
15.0;568.0
0.0;569.0
1.0;564.0
2.0;553.0
3.0;541.0
4.0;531.0
5.0;528.0
6.0;527.0
7.0;520.0
8.0;521.0
9.0;530.0
10.0;539.0
11.0;543.0
12.0;545.0
13.0;549.0
14.0;544.0
15.0;534.0
0.0;529.0
1.0;528.0
2.0;525.0
3.0;511.0
4.0;497.0
5.0;485.0
6.0;479.0
7.0;476.0
8.0;480.0
9.0;489.0
10.0;499.0
11.0;504.0
12.0;504.0
13.0;504.0
14.0;504.0
15.0;504.0
0.0;504.0
1.0;505.0
2.0;500.0
3.0;492.0
4.0;478.0
5.0;467.0
6.0;459.0
7.0;452.0
8.0;450.0
9.0;453.0
10.0;455.0
11.0;451.0
12.0;445.0
13.0;443.0
14.0;440.0
15.0;438.0
0.0;440.0
1.0;441.0
2.0;443.0
3.0;444.0
4.0;441.0
5.0;434.0
6.0;426.0
7.0;416.0
8.0;403.0
9.0;390.0
10.0;392.0
11.0;423.0
12.0;485.0
13.0;526.0
14.0;527.0
15.0;505.0
0.0;483.0
1.0;471.0
2.0;463.0
3.0;455.0
4.0;441.0
5.0;423.0
6.0;405.0
7.0;401.0
8.0;403.0
9.0;400.0
10.0;395.0
11.0;395.0
12.0;401.0
13.0;403.0
14.0;406.0
15.0;420.0
0.0;442.0
1.0;463.0
2.0;473.0
3.0;482.0
4.0;479.0
5.0;468.0
6.0;454.0
7.0;441.0
8.0;437.0
9.0;439.0
10.0;443.0
11.0;447.0
12.0;454.0
13.0;465.0
14.0;475.0
15.0;483.0
0.0;489.0
1.0;494.0
2.0;492.0
3.0;485.0
4.0;478.0
5.0;465.0
6.0;450.0
7.0;431.0
8.0;412.0
9.0;395.0
10.0;383.0
11.0;376.0
12.0;377.0
13.0;382.0
14.0;395.0
15.0;408.0
0.0;427.0
1.0;451.0
2.0;470.0
3.0;484.0
4.0;499.0
5.0;512.0
6.0;524.0
7.0;527.0
8.0;529.0
9.0;535.0
10.0;540.0
11.0;549.0
12.0;563.0
13.0;584.0
14.0;612.0
15.0;648.0
0.0;691.0
1.0;735.0
2.0;771.0
3.0;792.0
4.0;796.0
5.0;785.0
6.0;765.0
7.0;747.0
8.0;723.0
9.0;669.0
10.0;602.0
11.0;539.0
12.0;482.0
13.0;431.0
14.0;390.0
15.0;353.0
0.0;332.0
1.0;328.0
2.0;333.0
3.0;334.0
4.0;335.0
5.0;344.0
6.0;349.0
7.0;350.0
8.0;358.0
9.0;359.0
10.0;344.0
11.0;334.0
12.0;336.0
13.0;351.0
14.0;359.0
15.0;363.0
0.0;371.0
1.0;382.0
2.0;397.0
3.0;414.0
4.0;430.0
5.0;433.0
6.0;430.0
7.0;427.0
8.0;424.0
9.0;423.0
10.0;419.0
11.0;421.0
12.0;424.0
13.0;428.0
14.0;444.0
15.0;467.0
0.0;481.0
1.0;491.0
2.0;500.0
3.0;510.0
4.0;519.0
5.0;526.0
6.0;533.0
7.0;537.0
8.0;529.0
9.0;510.0
10.0;485.0
11.0;459.0
12.0;433.0
13.0;406.0
14.0;389.0
15.0;387.0
0.0;393.0
1.0;401.0
2.0;411.0
3.0;421.0
4.0;426.0
5.0;429.0
6.0;434.0
7.0;440.0
8.0;444.0
9.0;449.0
10.0;449.0
11.0;444.0
12.0;435.0
13.0;428.0
14.0;421.0
15.0;421.0
0.0;431.0
1.0;444.0
2.0;461.0
3.0;479.0
4.0;497.0
5.0;513.0
6.0;523.0
7.0;529.0
8.0;531.0
9.0;532.0
10.0;538.0
11.0;541.0
12.0;547.0
13.0;550.0
14.0;553.0
15.0;557.0
0.0;559.0
1.0;568.0
2.0;576.0
3.0;585.0
4.0;597.0
5.0;614.0
6.0;627.0
7.0;634.0
8.0;641.0
9.0;643.0
10.0;633.0
11.0;615.0
12.0;603.0
13.0;597.0
14.0;604.0
15.0;614.0
0.0;623.0
1.0;628.0
2.0;636.0
3.0;641.0
4.0;656.0
5.0;672.0
6.0;689.0
7.0;703.0
8.0;716.0
9.0;722.0
10.0;724.0
11.0;722.0
12.0;708.0
13.0;683.0
14.0;664.0
15.0;646.0
0.0;632.0
1.0;626.0
2.0;624.0
3.0;630.0
4.0;640.0
5.0;653.0
6.0;664.0
7.0;677.0
8.0;683.0
9.0;680.0
10.0;675.0
11.0;669.0
12.0;654.0
13.0;630.0
14.0;598.0
15.0;566.0
0.0;541.0
1.0;523.0
2.0;516.0
3.0;518.0
4.0;522.0
5.0;532.0
6.0;549.0
7.0;568.0
8.0;583.0
9.0;590.0
10.0;585.0
11.0;573.0
12.0;557.0
13.0;538.0
14.0;513.0
15.0;488.0
0.0;448.0
1.0;410.0
2.0;385.0
3.0;370.0
4.0;363.0
5.0;366.0
6.0;380.0
7.0;399.0
8.0;418.0
9.0;439.0
10.0;453.0
11.0;456.0
12.0;455.0
13.0;448.0
14.0;439.0
15.0;424.0
0.0;409.0
1.0;398.0
2.0;393.0
3.0;400.0
4.0;415.0
5.0;439.0
6.0;471.0
7.0;490.0
8.0;496.0
9.0;506.0
10.0;518.0
11.0;519.0
12.0;520.0
13.0;519.0
14.0;511.0
15.0;499.0
0.0;485.0
1.0;464.0
2.0;452.0
3.0;449.0
4.0;457.0
5.0;465.0
6.0;477.0
7.0;493.0
8.0;505.0
9.0;522.0
10.0;548.0
11.0;576.0
12.0;587.0
13.0;584.0
14.0;575.0
15.0;552.0
0.0;519.0
1.0;479.0
2.0;441.0
3.0;415.0
4.0;404.0
5.0;404.0
6.0;412.0
7.0;428.0
8.0;447.0
9.0;467.0
10.0;487.0
11.0;502.0
12.0;510.0
13.0;508.0
14.0;496.0
15.0;475.0
0.0;447.0
1.0;419.0
2.0;396.0
3.0;383.0
4.0;380.0
5.0;377.0
6.0;382.0
7.0;395.0
8.0;414.0
9.0;435.0
10.0;450.0
11.0;461.0
12.0;468.0
13.0;463.0
14.0;452.0
15.0;435.0
0.0;412.0
1.0;389.0
2.0;367.0
3.0;344.0
4.0;326.0
5.0;314.0
6.0;314.0
7.0;323.0
8.0;336.0
9.0;352.0
10.0;371.0
11.0;391.0
12.0;414.0
13.0;432.0
14.0;439.0
15.0;438.0
0.0;430.0
1.0;412.0
2.0;384.0
3.0;358.0
4.0;330.0
5.0;309.0
6.0;301.0
7.0;304.0
8.0;317.0
9.0;345.0
10.0;369.0
11.0;390.0
12.0;414.0
13.0;445.0
14.0;473.0
15.0;486.0
0.0;483.0
1.0;453.0
2.0;412.0
3.0;374.0
4.0;344.0
5.0;318.0
6.0;306.0
7.0;307.0
8.0;316.0
9.0;330.0
10.0;350.0
11.0;374.0
12.0;406.0
13.0;456.0
14.0;499.0
15.0;514.0
0.0;507.0
1.0;486.0
2.0;462.0
3.0;438.0
4.0;416.0
5.0;395.0
6.0;380.0
7.0;381.0
8.0;395.0
9.0;410.0
10.0;423.0
11.0;440.0
12.0;457.0
13.0;475.0
14.0;491.0
15.0;504.0
0.0;508.0
1.0;502.0
2.0;497.0
3.0;492.0
4.0;480.0
5.0;463.0
6.0;449.0
7.0;440.0
8.0;440.0
9.0;442.0
10.0;450.0
11.0;460.0
12.0;470.0
13.0;483.0
14.0;497.0
15.0;510.0
0.0;519.0
1.0;520.0
2.0;517.0
3.0;508.0
4.0;495.0
5.0;477.0
6.0;457.0
7.0;443.0
8.0;432.0
9.0;425.0
10.0;426.0
11.0;425.0
12.0;427.0
13.0;435.0
14.0;445.0
15.0;455.0
0.0;461.0
1.0;460.0
2.0;455.0
3.0;446.0
4.0;430.0
5.0;411.0
6.0;397.0
7.0;386.0
8.0;377.0
9.0;380.0
10.0;389.0
11.0;404.0
12.0;426.0
13.0;462.0
14.0;500.0
15.0;539.0
0.0;575.0
1.0;615.0
2.0;640.0
3.0;651.0
4.0;668.0
5.0;697.0
6.0;726.0
7.0;756.0
8.0;767.0
9.0;775.0
10.0;791.0
11.0;797.0
12.0;791.0
13.0;784.0
14.0;774.0
15.0;757.0
0.0;738.0
1.0;714.0
2.0;681.0
3.0;639.0
4.0;593.0
5.0;543.0
6.0;493.0
7.0;449.0
8.0;414.0
9.0;386.0
10.0;367.0
11.0;359.0
12.0;359.0
13.0;364.0
14.0;376.0
15.0;398.0
0.0;415.0
1.0;429.0
2.0;443.0
3.0;452.0
4.0;452.0
5.0;445.0
6.0;436.0
7.0;422.0
8.0;407.0
9.0;393.0
10.0;383.0
11.0;379.0
12.0;384.0
13.0;393.0
14.0;409.0
15.0;431.0
0.0;453.0
1.0;476.0
2.0;497.0
3.0;512.0
4.0;518.0
5.0;518.0
6.0;516.0
7.0;511.0
8.0;498.0
9.0;484.0
10.0;474.0
11.0;468.0
12.0;471.0
13.0;477.0
14.0;487.0
15.0;503.0
0.0;521.0
1.0;536.0
2.0;551.0
3.0;563.0
4.0;573.0
5.0;575.0
6.0;572.0
7.0;566.0
8.0;553.0
9.0;537.0
10.0;521.0
11.0;511.0
12.0;504.0
13.0;504.0
14.0;512.0
15.0;523.0
0.0;534.0
1.0;546.0
2.0;559.0
3.0;575.0
4.0;591.0
5.0;597.0
6.0;594.0
7.0;587.0
8.0;569.0
9.0;543.0
10.0;524.0
11.0;508.0
12.0;502.0
13.0;508.0
14.0;519.0
15.0;531.0
0.0;542.0
1.0;550.0
2.0;556.0
3.0;567.0
4.0;582.0
5.0;598.0
6.0;601.0
7.0;604.0
8.0;611.0
9.0;610.0
10.0;600.0
11.0;576.0
12.0;547.0
13.0;527.0
14.0;533.0
15.0;543.0
0.0;547.0
1.0;551.0
2.0;557.0
3.0;568.0
4.0;583.0
5.0;592.0
6.0;601.0
7.0;608.0
8.0;621.0
9.0;626.0
10.0;616.0
11.0;594.0
12.0;569.0
13.0;547.0
14.0;536.0
15.0;532.0
0.0;534.0
1.0;545.0
2.0;560.0
3.0;572.0
4.0;581.0
5.0;594.0
6.0;603.0
7.0;605.0
8.0;602.0
9.0;599.0
10.0;591.0
11.0;579.0
12.0;559.0
13.0;536.0
14.0;524.0
15.0;522.0
0.0;525.0
1.0;533.0
2.0;545.0
3.0;559.0
4.0;575.0
5.0;591.0
6.0;608.0
7.0;615.0
8.0;613.0
9.0;609.0
10.0;600.0
11.0;585.0
12.0;568.0
13.0;552.0
14.0;540.0
15.0;532.0
0.0;528.0
1.0;524.0
2.0;524.0
3.0;528.0
4.0;534.0
5.0;548.0
6.0;570.0
7.0;595.0
8.0;614.0
9.0;617.0
10.0;612.0
11.0;592.0
12.0;560.0
13.0;529.0
14.0;500.0
15.0;478.0
0.0;464.0
1.0;456.0
2.0;464.0
3.0;482.0
4.0;505.0
5.0;529.0
6.0;551.0
7.0;576.0
8.0;598.0
9.0;607.0
10.0;608.0
11.0;597.0
12.0;570.0
13.0;530.0
14.0;492.0
15.0;463.0
0.0;450.0
1.0;446.0
2.0;454.0
3.0;472.0
4.0;497.0
5.0;536.0
6.0;587.0
7.0;619.0
8.0;623.0
9.0;620.0
10.0;613.0
11.0;595.0
12.0;563.0
13.0;526.0
14.0;487.0
15.0;452.0
0.0;428.0
1.0;410.0
2.0;405.0
3.0;415.0
4.0;446.0
5.0;487.0
6.0;536.0
7.0;578.0
8.0;599.0
9.0;606.0
10.0;608.0
11.0;604.0
12.0;592.0
13.0;572.0
14.0;543.0
15.0;515.0
0.0;488.0
1.0;468.0
2.0;459.0
3.0;463.0
4.0;478.0
5.0;495.0
6.0;519.0
7.0;545.0
8.0;573.0
9.0;601.0
10.0;621.0
11.0;632.0
12.0;629.0
13.0;614.0
14.0;594.0
15.0;564.0
0.0;533.0
1.0;504.0
2.0;482.0
3.0;468.0
4.0;467.0
5.0;475.0
6.0;484.0
7.0;499.0
8.0;518.0
9.0;539.0
10.0;560.0
11.0;570.0
12.0;567.0
13.0;560.0
14.0;548.0
15.0;526.0
0.0;496.0
1.0;467.0
2.0;438.0
3.0;420.0
4.0;419.0
5.0;430.0
6.0;445.0
7.0;457.0
8.0;473.0
9.0;490.0
10.0;519.0
11.0;546.0
12.0;561.0
13.0;560.0
14.0;547.0
15.0;522.0
0.0;486.0
1.0;459.0
2.0;433.0
3.0;410.0
4.0;398.0
5.0;396.0
6.0;403.0
7.0;414.0
8.0;432.0
9.0;457.0
10.0;483.0
11.0;506.0
12.0;521.0
13.0;524.0
14.0;527.0
15.0;533.0
0.0;526.0
1.0;503.0
2.0;467.0
3.0;425.0
4.0;391.0
5.0;378.0
6.0;377.0
7.0;383.0
8.0;389.0
9.0;400.0
10.0;414.0
11.0;432.0
12.0;449.0
13.0;455.0
14.0;455.0
15.0;452.0
0.0;447.0
1.0;435.0
2.0;422.0
3.0;417.0
4.0;407.0
5.0;398.0
6.0;396.0
7.0;398.0
8.0;397.0
9.0;399.0
10.0;406.0
11.0;422.0
12.0;441.0
13.0;456.0
14.0;467.0
15.0;471.0
0.0;470.0
1.0;454.0
2.0;424.0
3.0;393.0
4.0;368.0
5.0;350.0
6.0;341.0
7.0;341.0
8.0;352.0
9.0;371.0
10.0;396.0
11.0;423.0
12.0;451.0
13.0;477.0
14.0;494.0
15.0;500.0
0.0;492.0
1.0;474.0
2.0;446.0
3.0;413.0
4.0;381.0
5.0;353.0
6.0;330.0
7.0;317.0
8.0;315.0
9.0;323.0
10.0;336.0
11.0;357.0
12.0;384.0
13.0;415.0
14.0;449.0
15.0;474.0
0.0;485.0
1.0;488.0
2.0;487.0
3.0;478.0
4.0;473.0
5.0;467.0
6.0;463.0
7.0;468.0
8.0;481.0
9.0;506.0
10.0;532.0
11.0;571.0
12.0;620.0
13.0;669.0
14.0;725.0
15.0;776.0
0.0;805.0
1.0;807.0
2.0;803.0
3.0;779.0
4.0;724.0
5.0;660.0
6.0;593.0
7.0;539.0
8.0;487.0
9.0;440.0
10.0;402.0
11.0;387.0
12.0;385.0
13.0;381.0
14.0;380.0
15.0;390.0
0.0;398.0
1.0;396.0
2.0;386.0
3.0;369.0
4.0;347.0
5.0;324.0
6.0;308.0
7.0;302.0
8.0;300.0
9.0;307.0
10.0;309.0
11.0;315.0
12.0;324.0
13.0;339.0
14.0;364.0
15.0;390.0
0.0;414.0
1.0;430.0
2.0;437.0
3.0;439.0
4.0;432.0
5.0;419.0
6.0;398.0
7.0;376.0
8.0;360.0
9.0;356.0
10.0;362.0
11.0;376.0
12.0;393.0
13.0;412.0
14.0;440.0
15.0;469.0
0.0;498.0
1.0;521.0
2.0;536.0
3.0;543.0
4.0;542.0
5.0;530.0
6.0;512.0
7.0;493.0
8.0;473.0
9.0;458.0
10.0;451.0
11.0;456.0
12.0;471.0
13.0;487.0
14.0;510.0
15.0;533.0
0.0;555.0
1.0;575.0
2.0;591.0
3.0;596.0
4.0;595.0
5.0;586.0
6.0;567.0
7.0;540.0
8.0;515.0
9.0;491.0
10.0;472.0
11.0;461.0
12.0;467.0
13.0;487.0
14.0;519.0
15.0;551.0
0.0;578.0
1.0;604.0
2.0;628.0
3.0;640.0
4.0;632.0
5.0;619.0
6.0;598.0
7.0;574.0
8.0;546.0
9.0;521.0
10.0;504.0
11.0;495.0
12.0;495.0
13.0;499.0
14.0;510.0
15.0;532.0
0.0;560.0
1.0;601.0
2.0;640.0
3.0;671.0
4.0;685.0
5.0;678.0
6.0;667.0
7.0;643.0
8.0;606.0
9.0;575.0
10.0;548.0
11.0;527.0
12.0;516.0
13.0;515.0
14.0;526.0
15.0;551.0
0.0;588.0
1.0;619.0
2.0;646.0
3.0;667.0
4.0;686.0
5.0;694.0
6.0;693.0
7.0;683.0
8.0;658.0
9.0;626.0
10.0;594.0
11.0;567.0
12.0;552.0
13.0;548.0
14.0;558.0
15.0;576.0
0.0;597.0
1.0;620.0
2.0;644.0
3.0;669.0
4.0;693.0
5.0;705.0
6.0;707.0
7.0;701.0
8.0;681.0
9.0;649.0
10.0;620.0
11.0;596.0
12.0;574.0
13.0;560.0
14.0;562.0
15.0;574.0
0.0;589.0
1.0;607.0
2.0;632.0
3.0;660.0
4.0;684.0
5.0;702.0
6.0;707.0
7.0;701.0
8.0;688.0
9.0;664.0
10.0;631.0
11.0;594.0
12.0;569.0
13.0;558.0
14.0;557.0
15.0;567.0
0.0;581.0
1.0;592.0
2.0;611.0
3.0;636.0
4.0;662.0
5.0;685.0
6.0;702.0
7.0;704.0
8.0;691.0
9.0;665.0
10.0;636.0
11.0;603.0
12.0;572.0
13.0;546.0
14.0;531.0
15.0;538.0
0.0;547.0
1.0;552.0
2.0;563.0
3.0;575.0
4.0;590.0
5.0;609.0
6.0;624.0
7.0;629.0
8.0;625.0
9.0;616.0
10.0;600.0
11.0;577.0
12.0;554.0
13.0;526.0
14.0;504.0
15.0;492.0
0.0;489.0
1.0;496.0
2.0;513.0
3.0;536.0
4.0;554.0
5.0;563.0
6.0;577.0
7.0;593.0
8.0;596.0
9.0;587.0
10.0;573.0
11.0;549.0
12.0;525.0
13.0;502.0
14.0;475.0
15.0;457.0
0.0;450.0
1.0;449.0
2.0;455.0
3.0;469.0
4.0;488.0
5.0;508.0
6.0;530.0
7.0;548.0
8.0;564.0
9.0;568.0
10.0;567.0
11.0;568.0
12.0;559.0
13.0;536.0
14.0;502.0
15.0;467.0
0.0;443.0
1.0;437.0
2.0;440.0
3.0;453.0
4.0;472.0
5.0;494.0
6.0;519.0
7.0;550.0
8.0;575.0
9.0;585.0
10.0;579.0
11.0;563.0
12.0;543.0
13.0;515.0
14.0;486.0
15.0;462.0
0.0;446.0
1.0;439.0
2.0;435.0
3.0;439.0
4.0;458.0
5.0;478.0
6.0;494.0
7.0;510.0
8.0;535.0
9.0;561.0
10.0;563.0
11.0;551.0
12.0;529.0
13.0;501.0
14.0;476.0
15.0;449.0
0.0;416.0
1.0;388.0
2.0;370.0
3.0;371.0
4.0;379.0
5.0;390.0
6.0;411.0
7.0;436.0
8.0;464.0
9.0;486.0
10.0;502.0
11.0;504.0
12.0;495.0
13.0;480.0
14.0;454.0
15.0;426.0
0.0;404.0
1.0;386.0
2.0;371.0
3.0;368.0
4.0;373.0
5.0;377.0
6.0;391.0
7.0;416.0
8.0;441.0
9.0;466.0
10.0;487.0
11.0;498.0
12.0;495.0
13.0;480.0
14.0;457.0
15.0;428.0
0.0;398.0
1.0;372.0
2.0;355.0
3.0;348.0
4.0;352.0
5.0;366.0
6.0;390.0
7.0;416.0
8.0;434.0
9.0;451.0
10.0;474.0
11.0;501.0
12.0;517.0
13.0;514.0
14.0;497.0
15.0;469.0
0.0;430.0
1.0;391.0
2.0;361.0
3.0;347.0
4.0;345.0
5.0;357.0
6.0;372.0
7.0;390.0
8.0;410.0
9.0;429.0
10.0;448.0
11.0;462.0
12.0;466.0
13.0;459.0
14.0;452.0
15.0;447.0
0.0;439.0
1.0;426.0
2.0;407.0
3.0;379.0
4.0;354.0
5.0;344.0
6.0;343.0
7.0;349.0
8.0;366.0
9.0;382.0
10.0;394.0
11.0;408.0
12.0;421.0
13.0;424.0
14.0;417.0
15.0;411.0
0.0;398.0
1.0;377.0
2.0;350.0
3.0;328.0
4.0;312.0
5.0;316.0
6.0;338.0
7.0;368.0
8.0;406.0
9.0;447.0
10.0;489.0
11.0;532.0
12.0;577.0
13.0;610.0
14.0;631.0
15.0;640.0
0.0;644.0
1.0;636.0
2.0;625.0
3.0;629.0
4.0;639.0
5.0;644.0
6.0;647.0
7.0;652.0
8.0;655.0
9.0;655.0
10.0;646.0
11.0;630.0
12.0;623.0
13.0;609.0
14.0;575.0
15.0;528.0
0.0;480.0
1.0;433.0
2.0;383.0
3.0;333.0
4.0;293.0
5.0;268.0
6.0;257.0
7.0;255.0
8.0;261.0
9.0;273.0
10.0;293.0
11.0;321.0
12.0;350.0
13.0;376.0
14.0;400.0
15.0;419.0
0.0;428.0
1.0;425.0
2.0;410.0
3.0;383.0
4.0;349.0
5.0;321.0
6.0;308.0
7.0;306.0
8.0;318.0
9.0;339.0
10.0;366.0
11.0;401.0
12.0;435.0
13.0;470.0
14.0;496.0
15.0;510.0
0.0;512.0
1.0;508.0
2.0;500.0
3.0;487.0
4.0;470.0
5.0;456.0
6.0;444.0
7.0;445.0
8.0;461.0
9.0;477.0
10.0;474.0
11.0;483.0
12.0;511.0
13.0;534.0
14.0;554.0
15.0;569.0
0.0;575.0
1.0;572.0
2.0;564.0
3.0;557.0
4.0;542.0
5.0;517.0
6.0;493.0
7.0;473.0
8.0;456.0
9.0;451.0
10.0;457.0
11.0;464.0
12.0;478.0
13.0;501.0
14.0;524.0
15.0;547.0
0.0;573.0
1.0;588.0
2.0;589.0
3.0;582.0
4.0;565.0
5.0;540.0
6.0;513.0
7.0;487.0
8.0;474.0
9.0;465.0
10.0;463.0
11.0;472.0
12.0;486.0
13.0;511.0
14.0;540.0
15.0;564.0
0.0;583.0
1.0;599.0
2.0;605.0
3.0;603.0
4.0;596.0
5.0;582.0
6.0;556.0
7.0;528.0
8.0;501.0
9.0;496.0
10.0;502.0
11.0;503.0
12.0;497.0
13.0;499.0
14.0;518.0
15.0;548.0
0.0;575.0
1.0;600.0
2.0;617.0
3.0;626.0
4.0;625.0
5.0;614.0
6.0;590.0
7.0;562.0
8.0;538.0
9.0;516.0
10.0;507.0
11.0;506.0
12.0;515.0
13.0;535.0
14.0;558.0
15.0;581.0
0.0;612.0
1.0;654.0
2.0;697.0
3.0;725.0
4.0;726.0
5.0;696.0
6.0;659.0
7.0;623.0
8.0;589.0
9.0;563.0
10.0;546.0
11.0;534.0
12.0;526.0
13.0;529.0
14.0;549.0
15.0;575.0
0.0;599.0
1.0;624.0
2.0;647.0
3.0;661.0
4.0;662.0
5.0;658.0
6.0;655.0
7.0;645.0
8.0;624.0
9.0;598.0
10.0;574.0
11.0;560.0
12.0;555.0
13.0;555.0
14.0;558.0
15.0;568.0
0.0;583.0
1.0;597.0
2.0;614.0
3.0;630.0
4.0;642.0
5.0;644.0
6.0;637.0
7.0;620.0
8.0;589.0
9.0;556.0
10.0;525.0
11.0;500.0
12.0;485.0
13.0;477.0
14.0;479.0
15.0;490.0
0.0;506.0
1.0;527.0
2.0;545.0
3.0;563.0
4.0;579.0
5.0;587.0
6.0;585.0
7.0;582.0
8.0;570.0
9.0;548.0
10.0;523.0
11.0;500.0
12.0;481.0
13.0;471.0
14.0;473.0
15.0;480.0
0.0;495.0
1.0;519.0
2.0;540.0
3.0;570.0
4.0;603.0
5.0;624.0
6.0;632.0
7.0;626.0
8.0;600.0
9.0;563.0
10.0;527.0
11.0;504.0
12.0;487.0
13.0;472.0
14.0;463.0
15.0;465.0
0.0;472.0
1.0;491.0
2.0;516.0
3.0;538.0
4.0;560.0
5.0;579.0
6.0;591.0
7.0;598.0
8.0;594.0
9.0;574.0
10.0;539.0
11.0;499.0
12.0;466.0
13.0;449.0
14.0;447.0
15.0;451.0
0.0;466.0
1.0;488.0
2.0;507.0
3.0;534.0
4.0;560.0
5.0;585.0
6.0;616.0
7.0;638.0
8.0;642.0
9.0;635.0
10.0;608.0
11.0;567.0
12.0;527.0
13.0;497.0
14.0;476.0
15.0;464.0
0.0;465.0
1.0;476.0
2.0;491.0
3.0;512.0
4.0;535.0
5.0;555.0
6.0;579.0
7.0;599.0
8.0;605.0
9.0;596.0
10.0;574.0
11.0;535.0
12.0;496.0
13.0;471.0
14.0;464.0
15.0;470.0
0.0;469.0
1.0;469.0
2.0;477.0
3.0;491.0
4.0;514.0
5.0;531.0
6.0;545.0
7.0;561.0
8.0;572.0
9.0;563.0
10.0;543.0
11.0;513.0
12.0;474.0
13.0;434.0
14.0;400.0
15.0;373.0
0.0;360.0
1.0;363.0
2.0;371.0
3.0;381.0
4.0;394.0
5.0;409.0
6.0;427.0
7.0;452.0
8.0;486.0
9.0;512.0
10.0;527.0
11.0;517.0
12.0;488.0
13.0;447.0
14.0;407.0
15.0;371.0
0.0;345.0
1.0;345.0
2.0;358.0
3.0;369.0
4.0;380.0
5.0;388.0
6.0;405.0
7.0;433.0
8.0;462.0
9.0;475.0
10.0;472.0
11.0;462.0
12.0;455.0
13.0;436.0
14.0;409.0
15.0;382.0
0.0;359.0
1.0;351.0
2.0;355.0
3.0;372.0
4.0;398.0
5.0;423.0
6.0;450.0
7.0;478.0
8.0;502.0
9.0;518.0
10.0;524.0
11.0;523.0
12.0;519.0
13.0;508.0
14.0;487.0
15.0;455.0
0.0;419.0
1.0;392.0
2.0;382.0
3.0;398.0
4.0;421.0
5.0;437.0
6.0;455.0
7.0;474.0
8.0;497.0
9.0;520.0
10.0;533.0
11.0;530.0
12.0;514.0
13.0;492.0
14.0;458.0
15.0;427.0
0.0;392.0
1.0;354.0
2.0;324.0
3.0;313.0
4.0;319.0
5.0;333.0
6.0;353.0
7.0;387.0
8.0;426.0
9.0;463.0
10.0;489.0
11.0;512.0
12.0;522.0
13.0;525.0
14.0;526.0
15.0;516.0
0.0;500.0
1.0;493.0
2.0;497.0
3.0;500.0
4.0;511.0
5.0;533.0
6.0;567.0
7.0;612.0
8.0;660.0
9.0;707.0
10.0;755.0
11.0;796.0
12.0;820.0
13.0;820.0
14.0;804.0
15.0;772.0
0.0;727.0
1.0;674.0
2.0;619.0
3.0;564.0
4.0;510.0
5.0;469.0
6.0;443.0
7.0;424.0
8.0;414.0
9.0;414.0
10.0;422.0
11.0;440.0
12.0;458.0
13.0;459.0
14.0;463.0
15.0;467.0
0.0;441.0
1.0;401.0
2.0;378.0
3.0;364.0
4.0;354.0
5.0;343.0
6.0;343.0
7.0;353.0
8.0;367.0
9.0;388.0
10.0;412.0
11.0;432.0
12.0;447.0
13.0;457.0
14.0;462.0
15.0;467.0
0.0;469.0
1.0;446.0
2.0;416.0
3.0;407.0
4.0;398.0
5.0;388.0
6.0;384.0
7.0;396.0
8.0;413.0
9.0;432.0
10.0;454.0
11.0;477.0
12.0;506.0
13.0;529.0
14.0;539.0
15.0;544.0
0.0;543.0
1.0;535.0
2.0;512.0
3.0;483.0
4.0;459.0
5.0;443.0
6.0;439.0
7.0;442.0
8.0;457.0
9.0;483.0
10.0;512.0
11.0;542.0
12.0;572.0
13.0;598.0
14.0;610.0
15.0;619.0
0.0;616.0
1.0;601.0
2.0;576.0
3.0;543.0
4.0;505.0
5.0;474.0
6.0;458.0
7.0;459.0
8.0;471.0
9.0;482.0
10.0;497.0
11.0;524.0
12.0;550.0
13.0;573.0
14.0;590.0
15.0;603.0
0.0;609.0
1.0;612.0
2.0;614.0
3.0;603.0
4.0;588.0
5.0;568.0
6.0;541.0
7.0;527.0
8.0;527.0
9.0;537.0
10.0;549.0
11.0;569.0
12.0;596.0
13.0;614.0
14.0;632.0
15.0;653.0
0.0;668.0
1.0;666.0
2.0;650.0
3.0;628.0
4.0;599.0
5.0;564.0
6.0;536.0
7.0;523.0
8.0;525.0
9.0;544.0
10.0;562.0
11.0;582.0
12.0;609.0
13.0;638.0
14.0;664.0
15.0;691.0
0.0;727.0
1.0;748.0
2.0;748.0
3.0;735.0
4.0;707.0
5.0;670.0
6.0;632.0
7.0;603.0
8.0;585.0
9.0;581.0
10.0;587.0
11.0;595.0
12.0;614.0
13.0;645.0
14.0;668.0
15.0;696.0
0.0;707.0
1.0;719.0
2.0;715.0
3.0;701.0
4.0;681.0
5.0;655.0
6.0;628.0
7.0;602.0
8.0;582.0
9.0;573.0
10.0;571.0
11.0;576.0
12.0;586.0
13.0;603.0
14.0;621.0
15.0;633.0
0.0;651.0
1.0;670.0
2.0;676.0
3.0;668.0
4.0;650.0
5.0;628.0
6.0;595.0
7.0;562.0
8.0;536.0
9.0;519.0
10.0;517.0
11.0;526.0
12.0;539.0
13.0;552.0
14.0;568.0
15.0;585.0
0.0;604.0
1.0;622.0
2.0;635.0
3.0;632.0
4.0;622.0
5.0;601.0
6.0;579.0
7.0;553.0
8.0;525.0
9.0;507.0
10.0;497.0
11.0;490.0
12.0;494.0
13.0;509.0
14.0;527.0
15.0;553.0
0.0;572.0
1.0;587.0
2.0;612.0
3.0;628.0
4.0;626.0
5.0;623.0
6.0;628.0
7.0;602.0
8.0;574.0
9.0;536.0
10.0;498.0
11.0;482.0
12.0;480.0
13.0;487.0
14.0;498.0
15.0;515.0
0.0;536.0
1.0;559.0
2.0;585.0
3.0;606.0
4.0;612.0
5.0;601.0
6.0;579.0
7.0;549.0
8.0;521.0
9.0;497.0
10.0;483.0
11.0;472.0
12.0;467.0
13.0;479.0
14.0;496.0
15.0;508.0
0.0;528.0
1.0;545.0
2.0;560.0
3.0;582.0
4.0;601.0
5.0;609.0
6.0;604.0
7.0;593.0
8.0;572.0
9.0;552.0
10.0;532.0
11.0;511.0
12.0;496.0
13.0;490.0
14.0;496.0
15.0;507.0
0.0;520.0
1.0;544.0
2.0;571.0
3.0;595.0
4.0;610.0
5.0;616.0
6.0;608.0
7.0;591.0
8.0;571.0
9.0;542.0
10.0;508.0
11.0;480.0
12.0;456.0
13.0;451.0
14.0;457.0
15.0;468.0
0.0;483.0
1.0;508.0
2.0;539.0
3.0;562.0
4.0;582.0
5.0;601.0
6.0;607.0
7.0;599.0
8.0;583.0
9.0;558.0
10.0;527.0
11.0;496.0
12.0;470.0
13.0;451.0
14.0;440.0
15.0;445.0
0.0;458.0
1.0;466.0
2.0;480.0
3.0;502.0
4.0;517.0
5.0;544.0
6.0;581.0
7.0;604.0
8.0;601.0
9.0;574.0
10.0;536.0
11.0;490.0
12.0;450.0
13.0;427.0
14.0;428.0
15.0;436.0
0.0;448.0
1.0;452.0
2.0;452.0
3.0;460.0
4.0;478.0
5.0;501.0
6.0;522.0
7.0;531.0
8.0;527.0
9.0;515.0
10.0;493.0
11.0;465.0
12.0;438.0
13.0;412.0
14.0;392.0
15.0;388.0
0.0;399.0
1.0;411.0
2.0;428.0
3.0;445.0
4.0;460.0
5.0;482.0
6.0;509.0
7.0;534.0
8.0;550.0
9.0;551.0
10.0;538.0
11.0;519.0
12.0;496.0
13.0;467.0
14.0;441.0
15.0;419.0
0.0;408.0
1.0;408.0
2.0;418.0
3.0;433.0
4.0;452.0
5.0;476.0
6.0;496.0
7.0;516.0
8.0;534.0
9.0;534.0
10.0;523.0
11.0;504.0
12.0;479.0
13.0;455.0
14.0;438.0
15.0;426.0
0.0;421.0
1.0;412.0
2.0;403.0
3.0;396.0
4.0;408.0
5.0;423.0
6.0;434.0
7.0;451.0
8.0;468.0
9.0;476.0
10.0;470.0
11.0;452.0
12.0;433.0
13.0;406.0
14.0;376.0
15.0;351.0
0.0;340.0
1.0;336.0
2.0;346.0
3.0;380.0
4.0;421.0
5.0;459.0
6.0;504.0
7.0;547.0
8.0;587.0
9.0;624.0
10.0;649.0
11.0;665.0
12.0;675.0
13.0;681.0
14.0;685.0
15.0;687.0
0.0;689.0
1.0;683.0
2.0;681.0
3.0;685.0
4.0;687.0
5.0;687.0
6.0;686.0
7.0;679.0
8.0;668.0
9.0;647.0
10.0;618.0
11.0;577.0
12.0;531.0
13.0;488.0
14.0;444.0
15.0;394.0
0.0;352.0
1.0;316.0
2.0;293.0
3.0;293.0
4.0;309.0
5.0;322.0
6.0;337.0
7.0;358.0
8.0;387.0
9.0;418.0
10.0;446.0
11.0;468.0
12.0;474.0
13.0;467.0
14.0;457.0
15.0;438.0
0.0;410.0
1.0;381.0
2.0;363.0
3.0;364.0
4.0;380.0
5.0;398.0
6.0;409.0
7.0;426.0
8.0;446.0
9.0;470.0
10.0;496.0
11.0;517.0
12.0;531.0
13.0;539.0
14.0;544.0
15.0;532.0
0.0;508.0
1.0;481.0
2.0;457.0
3.0;443.0
4.0;442.0
5.0;459.0
6.0;478.0
7.0;499.0
8.0;525.0
9.0;548.0
10.0;569.0
11.0;587.0
12.0;599.0
13.0;605.0
14.0;611.0
15.0;611.0
0.0;600.0
1.0;576.0
2.0;557.0
3.0;533.0
4.0;508.0
5.0;495.0
6.0;499.0
7.0;514.0
8.0;535.0
9.0;563.0
10.0;594.0
11.0;618.0
12.0;638.0
13.0;647.0
14.0;639.0
15.0;627.0
0.0;603.0
1.0;574.0
2.0;546.0
3.0;521.0
4.0;508.0
5.0;507.0
6.0;520.0
7.0;545.0
8.0;564.0
9.0;577.0
10.0;594.0
11.0;611.0
12.0;628.0
13.0;642.0
14.0;646.0
15.0;639.0
0.0;629.0
1.0;611.0
2.0;587.0
3.0;561.0
4.0;542.0
5.0;528.0
6.0;520.0
7.0;525.0
8.0;538.0
9.0;558.0
10.0;591.0
11.0;641.0
12.0;691.0
13.0;728.0
14.0;736.0
15.0;718.0
0.0;691.0
1.0;662.0
2.0;630.0
3.0;599.0
4.0;573.0
5.0;556.0
6.0;547.0
7.0;550.0
8.0;565.0
9.0;587.0
10.0;602.0
11.0;619.0
12.0;635.0
13.0;659.0
14.0;682.0
15.0;695.0
0.0;694.0
1.0;684.0
2.0;666.0
3.0;636.0
4.0;615.0
5.0;590.0
6.0;572.0
7.0;568.0
8.0;571.0
9.0;576.0
10.0;584.0
11.0;602.0
12.0;625.0
13.0;652.0
14.0;677.0
15.0;695.0
0.0;701.0
1.0;694.0
2.0;674.0
3.0;645.0
4.0;614.0
5.0;589.0
6.0;571.0
7.0;556.0
8.0;551.0
9.0;557.0
10.0;567.0
11.0;578.0
12.0;602.0
13.0;627.0
14.0;652.0
15.0;673.0
0.0;689.0
1.0;697.0
2.0;695.0
3.0;670.0
4.0;641.0
5.0;615.0
6.0;580.0
7.0;551.0
8.0;534.0
9.0;526.0
10.0;527.0
11.0;539.0
12.0;571.0
13.0;607.0
14.0;632.0
15.0;646.0
0.0;656.0
1.0;656.0
2.0;646.0
3.0;626.0
4.0;602.0
5.0;571.0
6.0;535.0
7.0;500.0
8.0;473.0
9.0;456.0
10.0;459.0
11.0;477.0
12.0;505.0
13.0;537.0
14.0;566.0
15.0;588.0
0.0;609.0
1.0;630.0
2.0;636.0
3.0;629.0
4.0;612.0
5.0;584.0
6.0;552.0
7.0;524.0
8.0;500.0
9.0;481.0
10.0;476.0
11.0;483.0
12.0;499.0
13.0;518.0
14.0;541.0
15.0;564.0
0.0;584.0
1.0;603.0
2.0;618.0
3.0;616.0
4.0;602.0
5.0;583.0
6.0;559.0
7.0;532.0
8.0;508.0
9.0;493.0
10.0;488.0
11.0;491.0
12.0;506.0
13.0;526.0
14.0;548.0
15.0;576.0
0.0;600.0
1.0;619.0
2.0;638.0
3.0;647.0
4.0;642.0
5.0;630.0
6.0;610.0
7.0;579.0
8.0;547.0
9.0;519.0
10.0;496.0
11.0;485.0
12.0;487.0
13.0;496.0
14.0;512.0
15.0;530.0
0.0;557.0
1.0;579.0
2.0;606.0
3.0;626.0
4.0;632.0
5.0;620.0
6.0;599.0
7.0;575.0
8.0;542.0
9.0;507.0
10.0;481.0
11.0;465.0
12.0;462.0
13.0;472.0
14.0;495.0
15.0;524.0
0.0;546.0
1.0;559.0
2.0;575.0
3.0;592.0
4.0;601.0
5.0;593.0
6.0;579.0
7.0;562.0
8.0;535.0
9.0;503.0
10.0;473.0
11.0;451.0
12.0;437.0
13.0;430.0
14.0;435.0
15.0;448.0
0.0;466.0
1.0;498.0
2.0;532.0
3.0;564.0
4.0;595.0
5.0;599.0
6.0;585.0
7.0;555.0
8.0;518.0
9.0;480.0
10.0;445.0
11.0;417.0
12.0;397.0
13.0;389.0
14.0;394.0
15.0;408.0
0.0;427.0
1.0;454.0
2.0;485.0
3.0;510.0
4.0;533.0
5.0;553.0
6.0;556.0
7.0;552.0
8.0;540.0
9.0;517.0
10.0;487.0
11.0;459.0
12.0;436.0
13.0;422.0
14.0;423.0
15.0;430.0
0.0;443.0
1.0;461.0
2.0;481.0
3.0;500.0
4.0;518.0
5.0;534.0
6.0;548.0
7.0;544.0
8.0;534.0
9.0;515.0
10.0;491.0
11.0;467.0
12.0;446.0
13.0;428.0
14.0;417.0
15.0;419.0
0.0;427.0
1.0;439.0
2.0;455.0
3.0;477.0
4.0;495.0
5.0;510.0
6.0;525.0
7.0;530.0
8.0;520.0
9.0;501.0
10.0;475.0
11.0;443.0
12.0;412.0
13.0;383.0
14.0;359.0
15.0;345.0
0.0;340.0
1.0;347.0
2.0;361.0
3.0;380.0
4.0;404.0
5.0;425.0
6.0;451.0
7.0;471.0
8.0;477.0
9.0;490.0
10.0;531.0
11.0;568.0
12.0;559.0
13.0;525.0
14.0;495.0
15.0;484.0
0.0;508.0
1.0;545.0
2.0;582.0
3.0;620.0
4.0;664.0
5.0;713.0
6.0;759.0
7.0;793.0
8.0;813.0
9.0;806.0
10.0;786.0
11.0;758.0
12.0;711.0
13.0;647.0
14.0;582.0
15.0;525.0
0.0;480.0
1.0;450.0
2.0;432.0
3.0;421.0
4.0;416.0
5.0;415.0
6.0;414.0
7.0;417.0
8.0;423.0
9.0;422.0
10.0;414.0
11.0;398.0
12.0;377.0
13.0;349.0
14.0;318.0
15.0;294.0
0.0;290.0
1.0;299.0
2.0;311.0
3.0;329.0
4.0;352.0
5.0;375.0
6.0;400.0
7.0;426.0
8.0;456.0
9.0;483.0
10.0;497.0
11.0;496.0
12.0;491.0
13.0;484.0
14.0;476.0
15.0;465.0
0.0;455.0
1.0;450.0
2.0;449.0
3.0;451.0
4.0;461.0
5.0;483.0
6.0;511.0
7.0;536.0
8.0;559.0
9.0;580.0
10.0;599.0
11.0;608.0
12.0;605.0
13.0;596.0
14.0;576.0
15.0;550.0
0.0;524.0
1.0;503.0
2.0;492.0
3.0;489.0
4.0;496.0
5.0;515.0
6.0;543.0
7.0;577.0
8.0;612.0
9.0;627.0
10.0;628.0
11.0;630.0
12.0;619.0
13.0;616.0
14.0;610.0
15.0;592.0
0.0;560.0
1.0;530.0
2.0;508.0
3.0;497.0
4.0;503.0
5.0;517.0
6.0;525.0
7.0;532.0
8.0;545.0
9.0;561.0
10.0;575.0
11.0;595.0
12.0;625.0
13.0;662.0
14.0;689.0
15.0;690.0
0.0;664.0
1.0;621.0
2.0;579.0
3.0;547.0
4.0;534.0
5.0;542.0
6.0;556.0
7.0;574.0
8.0;591.0
9.0;609.0
10.0;630.0
11.0;647.0
12.0;657.0
13.0;658.0
14.0;649.0
15.0;635.0
0.0;613.0
1.0;590.0
2.0;566.0
3.0;539.0
4.0;523.0
5.0;521.0
6.0;526.0
7.0;534.0
8.0;549.0
9.0;571.0
10.0;595.0
11.0;617.0
12.0;637.0
13.0;648.0
14.0;639.0
15.0;622.0
0.0;600.0
1.0;574.0
2.0;551.0
3.0;532.0
4.0;521.0
5.0;515.0
6.0;521.0
7.0;539.0
8.0;560.0
9.0;588.0
10.0;617.0
11.0;639.0
12.0;659.0
13.0;678.0
14.0;686.0
15.0;686.0
0.0;687.0
1.0;673.0
2.0;646.0
3.0;617.0
4.0;595.0
5.0;572.0
6.0;552.0
7.0;547.0
8.0;553.0
9.0;570.0
10.0;589.0
11.0;613.0
12.0;637.0
13.0;651.0
14.0;657.0
15.0;654.0
0.0;646.0
1.0;635.0
2.0;614.0
3.0;580.0
4.0;548.0
5.0;530.0
6.0;521.0
7.0;527.0
8.0;543.0
9.0;575.0
10.0;615.0
11.0;655.0
12.0;675.0
13.0;683.0
14.0;690.0
15.0;692.0
0.0;683.0
1.0;654.0
2.0;620.0
3.0;584.0
4.0;551.0
5.0;525.0
6.0;507.0
7.0;495.0
8.0;496.0
9.0;502.0
10.0;508.0
11.0;518.0
12.0;535.0
13.0;551.0
14.0;565.0
15.0;581.0
0.0;586.0
1.0;581.0
2.0;569.0
3.0;560.0
4.0;546.0
5.0;529.0
6.0;513.0
7.0;497.0
8.0;488.0
9.0;489.0
10.0;498.0
11.0;506.0
12.0;519.0
13.0;533.0
14.0;550.0
15.0;565.0
0.0;576.0
1.0;577.0
2.0;571.0
3.0;562.0
4.0;544.0
5.0;523.0
6.0;505.0
7.0;494.0
8.0;488.0
9.0;489.0
10.0;496.0
11.0;506.0
12.0;520.0
13.0;539.0
14.0;559.0
15.0;577.0
0.0;594.0
1.0;604.0
2.0;608.0
3.0;605.0
4.0;599.0
5.0;590.0
6.0;573.0
7.0;558.0
8.0;545.0
9.0;546.0
10.0;549.0
11.0;558.0
12.0;570.0
13.0;585.0
14.0;604.0
15.0;611.0
0.0;622.0
1.0;632.0
2.0;639.0
3.0;639.0
4.0;624.0
5.0;600.0
6.0;572.0
7.0;542.0
8.0;525.0
9.0;518.0
10.0;533.0
11.0;565.0
12.0;585.0
13.0;583.0
14.0;587.0
15.0;595.0
0.0;604.0
1.0;621.0
2.0;636.0
3.0;644.0
4.0;632.0
5.0;609.0
6.0;578.0
7.0;548.0
8.0;526.0
9.0;514.0
10.0;511.0
11.0;508.0
12.0;511.0
13.0;519.0
14.0;529.0
15.0;537.0
0.0;547.0
1.0;556.0
2.0;560.0
3.0;565.0
4.0;568.0
5.0;566.0
6.0;558.0
7.0;541.0
8.0;522.0
9.0;508.0
10.0;495.0
11.0;488.0
12.0;483.0
13.0;481.0
14.0;481.0
15.0;485.0
0.0;491.0
1.0;497.0
2.0;504.0
3.0;514.0
4.0;522.0
5.0;525.0
6.0;524.0
7.0;521.0
8.0;509.0
9.0;492.0
10.0;475.0
11.0;464.0
12.0;455.0
13.0;450.0
14.0;458.0
15.0;473.0
0.0;496.0
1.0;515.0
2.0;534.0
3.0;551.0
4.0;563.0
5.0;567.0
6.0;560.0
7.0;550.0
8.0;532.0
9.0;517.0
10.0;508.0
11.0;507.0
12.0;502.0
13.0;490.0
14.0;488.0
15.0;489.0
0.0;490.0
1.0;490.0
2.0;492.0
3.0;498.0
4.0;515.0
5.0;530.0
6.0;536.0
7.0;543.0
8.0;559.0
9.0;551.0
10.0;522.0
11.0;488.0
12.0;457.0
13.0;433.0
14.0;425.0
15.0;432.0
0.0;432.0
1.0;421.0
2.0;408.0
3.0;402.0
4.0;396.0
5.0;388.0
6.0;380.0
7.0;376.0
8.0;373.0
9.0;370.0
10.0;368.0
11.0;367.0
12.0;369.0
13.0;376.0
14.0;385.0
15.0;399.0
0.0;414.0
1.0;433.0
2.0;459.0
3.0;490.0
4.0;513.0
5.0;529.0
6.0;547.0
7.0;565.0
8.0;587.0
9.0;611.0
10.0;632.0
11.0;654.0
12.0;679.0
13.0;693.0
14.0;703.0
15.0;704.0
0.0;702.0
1.0;693.0
2.0;680.0
3.0;658.0
4.0;628.0
5.0;594.0
6.0;560.0
7.0;526.0
8.0;505.0
9.0;484.0
10.0;468.0
11.0;445.0
12.0;421.0
13.0;398.0
14.0;379.0
15.0;367.0
0.0;361.0
1.0;362.0
2.0;365.0
3.0;372.0
4.0;384.0
5.0;399.0
6.0;418.0
7.0;446.0
8.0;472.0
9.0;487.0
10.0;490.0
11.0;482.0
12.0;461.0
13.0;435.0
14.0;417.0
15.0;403.0
0.0;388.0
1.0;380.0
2.0;387.0
3.0;395.0
4.0;408.0
5.0;429.0
6.0;454.0
7.0;478.0
8.0;495.0
9.0;506.0
10.0;512.0
11.0;514.0
12.0;510.0
13.0;511.0
14.0;509.0
15.0;507.0
0.0;495.0
1.0;484.0
2.0;485.0
3.0;497.0
4.0;514.0
5.0;532.0
6.0;548.0
7.0;556.0
8.0;563.0
9.0;567.0
10.0;571.0
11.0;572.0
12.0;567.0
13.0;563.0
14.0;560.0
15.0;558.0
0.0;558.0
1.0;558.0
2.0;555.0
3.0;554.0
4.0;557.0
5.0;560.0
6.0;565.0
7.0;566.0
8.0;568.0
9.0;569.0
10.0;566.0
11.0;565.0
12.0;566.0
13.0;563.0
14.0;560.0
15.0;552.0
0.0;548.0
1.0;542.0
2.0;537.0
3.0;536.0
4.0;536.0
5.0;538.0
6.0;542.0
7.0;550.0
8.0;560.0
9.0;570.0
10.0;571.0
11.0;559.0
12.0;550.0
13.0;546.0
14.0;545.0
15.0;542.0
0.0;538.0
1.0;535.0
2.0;533.0
3.0;534.0
4.0;536.0
5.0;535.0
6.0;531.0
7.0;537.0
8.0;545.0
9.0;553.0
10.0;560.0
11.0;554.0
12.0;555.0
13.0;560.0
14.0;564.0
15.0;564.0
0.0;565.0
1.0;573.0
2.0;578.0
3.0;581.0
4.0;584.0
5.0;587.0
6.0;591.0
7.0;589.0
8.0;588.0
9.0;587.0
10.0;583.0
11.0;579.0
12.0;580.0
13.0;589.0
14.0;590.0
15.0;588.0
0.0;588.0
1.0;585.0
2.0;587.0
3.0;590.0
4.0;594.0
5.0;593.0
6.0;594.0
7.0;595.0
8.0;595.0
9.0;594.0
10.0;595.0
11.0;595.0
12.0;589.0
13.0;581.0
14.0;572.0
15.0;563.0
0.0;559.0
1.0;552.0
2.0;551.0
3.0;556.0
4.0;562.0
5.0;568.0
6.0;569.0
7.0;571.0
8.0;572.0
9.0;570.0
10.0;566.0
11.0;559.0
12.0;550.0
13.0;537.0
14.0;523.0
15.0;513.0
0.0;508.0
1.0;510.0
2.0;519.0
3.0;528.0
4.0;532.0
5.0;536.0
6.0;536.0
7.0;539.0
8.0;542.0
9.0;536.0
10.0;533.0
11.0;533.0
12.0;529.0
13.0;535.0
14.0;539.0
15.0;535.0
0.0;531.0
1.0;527.0
2.0;520.0
3.0;522.0
4.0;534.0
5.0;537.0
6.0;533.0
7.0;532.0
8.0;533.0
9.0;527.0
10.0;519.0
11.0;515.0
12.0;527.0
13.0;538.0
14.0;545.0
15.0;549.0
0.0;548.0
1.0;549.0
2.0;543.0
3.0;538.0
4.0;534.0
5.0;528.0
6.0;519.0
7.0;510.0
8.0;507.0
9.0;504.0
10.0;502.0
11.0;503.0
12.0;503.0
13.0;503.0
14.0;502.0
15.0;506.0
0.0;512.0
1.0;514.0
2.0;514.0
3.0;514.0
4.0;513.0
5.0;509.0
6.0;505.0
7.0;500.0
8.0;501.0
9.0;507.0
10.0;513.0
11.0;519.0
12.0;522.0
13.0;527.0
14.0;534.0
15.0;537.0
0.0;538.0
1.0;535.0
2.0;528.0
3.0;519.0
4.0;516.0
5.0;507.0
6.0;500.0
7.0;494.0
8.0;487.0
9.0;490.0
10.0;503.0
11.0;510.0
12.0;504.0
13.0;501.0
14.0;505.0
15.0;507.0
0.0;511.0
1.0;510.0
2.0;509.0
3.0;507.0
4.0;504.0
5.0;501.0
6.0;499.0
7.0;492.0
8.0;486.0
9.0;482.0
10.0;480.0
11.0;476.0
12.0;475.0
13.0;481.0
14.0;486.0
15.0;487.0
0.0;486.0
1.0;484.0
2.0;480.0
3.0;476.0
4.0;473.0
5.0;468.0
6.0;462.0
7.0;455.0
8.0;452.0
9.0;441.0
10.0;436.0
11.0;433.0
12.0;434.0
13.0;436.0
14.0;438.0
15.0;437.0
0.0;436.0
1.0;435.0
2.0;435.0
3.0;436.0
4.0;438.0
5.0;438.0
6.0;437.0
7.0;432.0
8.0;428.0
9.0;423.0
10.0;419.0
11.0;414.0
12.0;416.0
13.0;417.0
14.0;419.0
15.0;422.0
0.0;422.0
1.0;419.0
2.0;409.0
3.0;399.0
4.0;397.0
5.0;407.0
6.0;424.0
7.0;456.0
8.0;492.0
9.0;518.0
10.0;525.0
11.0;505.0
12.0;494.0
13.0;488.0
14.0;480.0
15.0;471.0
0.0;465.0
1.0;461.0
2.0;449.0
3.0;444.0
4.0;453.0
5.0;456.0
6.0;457.0
7.0;456.0
8.0;453.0
9.0;452.0
10.0;452.0
11.0;451.0
12.0;447.0
13.0;440.0
14.0;436.0
15.0;435.0
0.0;434.0
1.0;431.0
2.0;427.0
3.0;422.0
4.0;415.0
5.0;407.0
6.0;399.0
7.0;393.0
8.0;385.0
9.0;376.0
10.0;370.0
11.0;363.0
12.0;353.0
13.0;347.0
14.0;346.0
15.0;347.0
0.0;351.0
1.0;358.0
2.0;368.0
3.0;380.0
4.0;392.0
5.0;408.0
6.0;430.0
7.0;451.0
8.0;471.0
9.0;495.0
10.0;513.0
11.0;530.0
12.0;549.0
13.0;573.0
14.0;608.0
15.0;643.0
0.0;674.0
1.0;703.0
2.0;720.0
3.0;723.0
4.0;720.0
5.0;717.0
6.0;705.0
7.0;689.0
8.0;665.0
9.0;627.0
10.0;579.0
11.0;534.0
12.0;496.0
13.0;464.0
14.0;431.0
15.0;407.0
0.0;395.0
1.0;395.0
2.0;393.0
3.0;388.0
4.0;383.0
5.0;384.0
6.0;385.0
7.0;380.0
8.0;372.0
9.0;371.0
10.0;371.0
11.0;369.0
12.0;372.0
13.0;376.0
14.0;380.0
15.0;383.0
0.0;387.0
1.0;388.0
2.0;391.0
3.0;398.0
4.0;406.0
5.0;410.0
6.0;416.0
7.0;423.0
8.0;429.0
9.0;435.0
10.0;440.0
11.0;444.0
12.0;448.0
13.0;456.0
14.0;456.0
15.0;462.0
0.0;467.0
1.0;475.0
2.0;483.0
3.0;490.0
4.0;496.0
5.0;499.0
6.0;500.0
7.0;507.0
8.0;516.0
9.0;521.0
10.0;525.0
11.0;530.0
12.0;532.0
13.0;537.0
14.0;538.0
15.0;532.0
0.0;529.0
1.0;542.0
2.0;553.0
3.0;554.0
4.0;561.0
5.0;569.0
6.0;567.0
7.0;553.0
8.0;545.0
9.0;543.0
10.0;545.0
11.0;546.0
12.0;541.0
13.0;536.0
14.0;535.0
15.0;534.0
0.0;536.0
1.0;537.0
2.0;536.0
3.0;531.0
4.0;528.0
5.0;528.0
6.0;539.0
7.0;560.0
8.0;586.0
9.0;602.0
10.0;599.0
11.0;579.0
12.0;565.0
13.0;556.0
14.0;553.0
15.0;557.0
0.0;558.0
1.0;554.0
2.0;556.0
3.0;565.0
4.0;571.0
5.0;572.0
6.0;575.0
7.0;573.0
8.0;569.0
9.0;565.0
10.0;571.0
11.0;586.0
12.0;598.0
13.0;603.0
14.0;591.0
15.0;579.0
0.0;572.0
1.0;564.0
2.0;551.0
3.0;549.0
4.0;557.0
5.0;565.0
6.0;568.0
7.0;568.0
8.0;569.0
9.0;570.0
10.0;571.0
11.0;573.0
12.0;572.0
13.0;576.0
14.0;579.0
15.0;577.0
0.0;581.0
1.0;582.0
2.0;580.0
3.0;573.0
4.0;570.0
5.0;577.0
6.0;585.0
7.0;594.0
8.0;596.0
9.0;594.0
10.0;596.0
11.0;600.0
12.0;603.0
13.0;601.0
14.0;596.0
15.0;594.0
0.0;589.0
1.0;584.0
2.0;580.0
3.0;577.0
4.0;571.0
5.0;570.0
6.0;569.0
7.0;563.0
8.0;552.0
9.0;545.0
10.0;556.0
11.0;585.0
12.0;603.0
13.0;617.0
14.0;633.0
15.0;628.0
0.0;613.0
1.0;591.0
2.0;579.0
3.0;574.0
4.0;572.0
5.0;575.0
6.0;570.0
7.0;567.0
8.0;566.0
9.0;569.0
10.0;570.0
11.0;575.0
12.0;574.0
13.0;575.0
14.0;578.0
15.0;583.0
0.0;583.0
1.0;582.0
2.0;582.0
3.0;583.0
4.0;580.0
5.0;582.0
6.0;592.0
7.0;603.0
8.0;607.0
9.0;606.0
10.0;600.0
11.0;588.0
12.0;578.0
13.0;573.0
14.0;569.0
15.0;568.0
0.0;576.0
1.0;579.0
2.0;568.0
3.0;563.0
4.0;563.0
5.0;557.0
6.0;547.0
7.0;539.0
8.0;532.0
9.0;529.0
10.0;529.0
11.0;528.0
12.0;521.0
13.0;516.0
14.0;514.0
15.0;505.0
0.0;501.0
1.0;496.0
2.0;491.0
3.0;489.0
4.0;485.0
5.0;481.0
6.0;474.0
7.0;466.0
8.0;464.0
9.0;471.0
10.0;481.0
11.0;492.0
12.0;504.0
13.0;511.0
14.0;517.0
15.0;527.0
0.0;534.0
1.0;530.0
2.0;515.0
3.0;500.0
4.0;496.0
5.0;492.0
6.0;488.0
7.0;485.0
8.0;485.0
9.0;492.0
10.0;492.0
11.0;492.0
12.0;492.0
13.0;489.0
14.0;496.0
15.0;508.0
0.0;507.0
1.0;510.0
2.0;514.0
3.0;508.0
4.0;508.0
5.0;507.0
6.0;506.0
7.0;502.0
8.0;500.0
9.0;499.0
10.0;494.0
11.0;487.0
12.0;479.0
13.0;478.0
14.0;476.0
15.0;476.0
0.0;473.0
1.0;471.0
2.0;468.0
3.0;464.0
4.0;455.0
5.0;450.0
6.0;449.0
7.0;449.0
8.0;446.0
9.0;443.0
10.0;441.0
11.0;439.0
12.0;435.0
13.0;431.0
14.0;425.0
15.0;422.0
0.0;423.0
1.0;422.0
2.0;420.0
3.0;420.0
4.0;419.0
5.0;414.0
6.0;409.0
7.0;406.0
8.0;408.0
9.0;410.0
10.0;412.0
11.0;413.0
12.0;406.0
13.0;402.0
14.0;409.0
15.0;422.0
0.0;433.0
1.0;440.0
2.0;434.0
3.0;424.0
4.0;411.0
5.0;407.0
6.0;405.0
7.0;415.0
8.0;420.0
9.0;414.0
10.0;407.0
11.0;399.0
12.0;393.0
13.0;396.0
14.0;408.0
15.0;418.0
0.0;415.0
1.0;414.0
2.0;415.0
3.0;421.0
4.0;429.0
5.0;432.0
6.0;426.0
7.0;426.0
8.0;429.0
9.0;425.0
10.0;425.0
11.0;429.0
12.0;430.0
13.0;424.0
14.0;417.0
15.0;413.0
0.0;411.0
1.0;416.0
2.0;417.0
3.0;418.0
4.0;415.0
5.0;414.0
6.0;414.0
7.0;412.0
8.0;409.0
9.0;406.0
10.0;404.0
11.0;405.0
12.0;400.0
13.0;391.0
14.0;388.0
15.0;391.0
0.0;390.0
1.0;390.0
2.0;389.0
3.0;383.0
4.0;371.0
5.0;360.0
6.0;354.0
7.0;354.0
8.0;358.0
9.0;363.0
10.0;363.0
11.0;365.0
12.0;374.0
13.0;386.0
14.0;399.0
15.0;415.0
0.0;442.0
1.0;465.0
2.0;485.0
3.0;503.0
4.0;519.0
5.0;533.0
6.0;549.0
7.0;573.0
8.0;600.0
9.0;626.0
10.0;662.0
11.0;691.0
12.0;706.0
13.0;710.0
14.0;700.0
15.0;693.0
0.0;684.0
1.0;667.0
2.0;644.0
3.0;606.0
4.0;565.0
5.0;530.0
6.0;499.0
7.0;465.0
8.0;432.0
9.0;414.0
10.0;403.0
11.0;396.0
12.0;392.0
13.0;382.0
14.0;372.0
15.0;359.0
0.0;352.0
1.0;351.0
2.0;348.0
3.0;348.0
4.0;361.0
5.0;368.0
6.0;369.0
7.0;382.0
8.0;398.0
9.0;405.0
10.0;403.0
11.0;403.0
12.0;406.0
13.0;394.0
14.0;387.0
15.0;385.0
0.0;384.0
1.0;382.0
2.0;384.0
3.0;389.0
4.0;388.0
5.0;391.0
6.0;400.0
7.0;409.0
8.0;421.0
9.0;428.0
10.0;428.0
11.0;432.0
12.0;443.0
13.0;459.0
14.0;474.0
15.0;487.0
0.0;490.0
1.0;487.0
2.0;484.0
3.0;481.0
4.0;480.0
5.0;480.0
6.0;485.0
7.0;489.0
8.0;493.0
9.0;501.0
10.0;511.0
11.0;514.0
12.0;517.0
13.0;519.0
14.0;517.0
15.0;519.0
0.0;518.0
1.0;518.0
2.0;525.0
3.0;536.0
4.0;539.0
5.0;536.0
6.0;533.0
7.0;529.0
8.0;523.0
9.0;527.0
10.0;533.0
11.0;532.0
12.0;532.0
13.0;536.0
14.0;539.0
15.0;545.0
0.0;548.0
1.0;548.0
2.0;544.0
3.0;540.0
4.0;540.0
5.0;539.0
6.0;537.0
7.0;536.0
8.0;536.0
9.0;547.0
10.0;560.0
11.0;561.0
12.0;559.0
13.0;560.0
14.0;577.0
15.0;577.0
0.0;569.0
1.0;566.0
2.0;578.0
3.0;587.0
4.0;587.0
5.0;595.0
6.0;596.0
7.0;597.0
8.0;588.0
9.0;581.0
10.0;574.0
11.0;567.0
12.0;567.0
13.0;568.0
14.0;571.0
15.0;568.0
0.0;565.0
1.0;553.0
2.0;548.0
3.0;547.0
4.0;545.0
5.0;546.0
6.0;546.0
7.0;548.0
8.0;548.0
9.0;545.0
10.0;543.0
11.0;542.0
12.0;542.0
13.0;540.0
14.0;541.0
15.0;544.0
0.0;546.0
1.0;547.0
2.0;554.0
3.0;558.0
4.0;560.0
5.0;559.0
6.0;556.0
7.0;551.0
8.0;546.0
9.0;544.0
10.0;540.0
11.0;531.0
12.0;523.0
13.0;519.0
14.0;516.0
15.0;518.0
0.0;519.0
1.0;518.0
2.0;520.0
3.0;525.0
4.0;529.0
5.0;533.0
6.0;531.0
7.0;528.0
8.0;520.0
9.0;511.0
10.0;504.0
11.0;496.0
12.0;490.0
13.0;484.0
14.0;482.0
15.0;484.0
0.0;484.0
1.0;484.0
2.0;487.0
3.0;482.0
4.0;487.0
5.0;500.0
6.0;502.0
7.0;493.0
8.0;491.0
9.0;491.0
10.0;501.0
11.0;500.0
12.0;502.0
13.0;502.0
14.0;488.0
15.0;472.0
0.0;465.0
1.0;462.0
2.0;462.0
3.0;459.0
4.0;464.0
5.0;469.0
6.0;472.0
7.0;471.0
8.0;469.0
9.0;464.0
10.0;458.0
11.0;461.0
12.0;473.0
13.0;478.0
14.0;484.0
15.0;485.0
0.0;477.0
1.0;472.0
2.0;471.0
3.0;469.0
4.0;468.0
5.0;474.0
6.0;477.0
7.0;475.0
8.0;478.0
9.0;479.0
10.0;475.0
11.0;469.0
12.0;474.0
13.0;475.0
14.0;474.0
15.0;473.0
0.0;472.0
1.0;469.0
2.0;467.0
3.0;471.0
4.0;480.0
5.0;492.0
6.0;502.0
7.0;509.0
8.0;508.0
9.0;504.0
10.0;508.0
11.0;515.0
12.0;519.0
13.0;513.0
14.0;498.0
15.0;487.0
0.0;484.0
1.0;486.0
2.0;486.0
3.0;495.0
4.0;502.0
5.0;511.0
6.0;520.0
7.0;523.0
8.0;521.0
9.0;516.0
10.0;513.0
11.0;511.0
12.0;505.0
13.0;503.0
14.0;500.0
15.0;497.0
0.0;497.0
1.0;498.0
2.0;494.0
3.0;487.0
4.0;485.0
5.0;480.0
6.0;475.0
7.0;475.0
8.0;473.0
9.0;466.0
10.0;464.0
11.0;467.0
12.0;466.0
13.0;463.0
14.0;461.0
15.0;453.0
0.0;447.0
1.0;445.0
2.0;440.0
3.0;432.0
4.0;431.0
5.0;433.0
6.0;436.0
7.0;432.0
8.0;423.0
9.0;419.0
10.0;416.0
11.0;415.0
12.0;426.0
13.0;440.0
14.0;454.0
15.0;462.0
0.0;460.0
1.0;448.0
2.0;436.0
3.0;428.0
4.0;420.0
5.0;421.0
6.0;418.0
7.0;413.0
8.0;421.0
9.0;427.0
10.0;427.0
11.0;422.0
12.0;413.0
13.0;407.0
14.0;417.0
15.0;434.0
0.0;452.0
1.0;452.0
2.0;441.0
3.0;433.0
4.0;417.0
5.0;413.0
6.0;419.0
7.0;417.0
8.0;413.0
9.0;414.0
10.0;408.0
11.0;407.0
12.0;412.0
13.0;431.0
14.0;450.0
15.0;461.0
0.0;457.0
1.0;445.0
2.0;436.0
3.0;434.0
4.0;428.0
5.0;419.0
6.0;412.0
7.0;409.0
8.0;405.0
9.0;404.0
10.0;408.0
11.0;412.0
12.0;412.0
13.0;416.0
14.0;417.0
15.0;418.0
0.0;420.0
1.0;418.0
2.0;415.0
3.0;406.0
4.0;396.0
5.0;386.0
6.0;378.0
7.0;372.0
8.0;363.0
9.0;352.0
10.0;344.0
11.0;339.0
12.0;336.0
13.0;333.0
14.0;327.0
15.0;319.0
0.0;315.0
1.0;313.0
2.0;315.0
3.0;326.0
4.0;339.0
5.0;342.0
6.0;343.0
7.0;356.0
8.0;377.0
9.0;419.0
10.0;460.0
11.0;491.0
12.0;511.0
13.0;523.0
14.0;541.0
15.0;567.0
0.0;596.0
1.0;620.0
2.0;641.0
3.0;657.0
4.0;663.0
5.0;667.0
6.0;673.0
7.0;668.0
8.0;655.0
9.0;642.0
10.0;620.0
11.0;586.0
12.0;547.0
13.0;502.0
14.0;457.0
15.0;417.0
0.0;381.0
1.0;352.0
2.0;335.0
3.0;321.0
4.0;313.0
5.0;315.0
6.0;323.0
7.0;330.0
8.0;331.0
9.0;332.0
10.0;336.0
11.0;339.0
12.0;343.0
13.0;353.0
14.0;357.0
15.0;356.0
0.0;353.0
1.0;353.0
2.0;350.0
3.0;348.0
4.0;357.0
5.0;369.0
6.0;376.0
7.0;379.0
8.0;382.0
9.0;386.0
10.0;387.0
11.0;389.0
12.0;391.0
13.0;405.0
14.0;423.0
15.0;434.0
0.0;443.0
1.0;448.0
2.0;450.0
3.0;456.0
4.0;463.0
5.0;467.0
6.0;469.0
7.0;472.0
8.0;475.0
9.0;474.0
10.0;483.0
11.0;492.0
12.0;489.0
13.0;486.0
14.0;486.0
15.0;484.0
0.0;484.0
1.0;492.0
2.0;507.0
3.0;519.0
4.0;523.0
5.0;526.0
6.0;529.0
7.0;530.0
8.0;527.0
9.0;517.0
10.0;517.0
11.0;517.0
12.0;515.0
13.0;515.0
14.0;516.0
15.0;513.0
0.0;506.0
1.0;501.0
2.0;494.0
3.0;489.0
4.0;476.0
5.0;469.0
6.0;472.0
7.0;478.0
8.0;491.0
9.0;505.0
10.0;539.0
11.0;558.0
12.0;557.0
13.0;547.0
14.0;531.0
15.0;520.0
0.0;519.0
1.0;521.0
2.0;526.0
3.0;528.0
4.0;526.0
5.0;522.0
6.0;524.0
7.0;524.0
8.0;527.0
9.0;535.0
10.0;540.0
11.0;541.0
12.0;543.0
13.0;548.0
14.0;552.0
15.0;559.0
0.0;562.0
1.0;563.0
2.0;567.0
3.0;572.0
4.0;575.0
5.0;575.0
6.0;575.0
7.0;574.0
8.0;573.0
9.0;577.0
10.0;585.0
11.0;593.0
12.0;600.0
13.0;608.0
14.0;613.0
15.0;615.0
0.0;619.0
1.0;625.0
2.0;627.0
3.0;630.0
4.0;637.0
5.0;642.0
6.0;643.0
7.0;644.0
8.0;647.0
9.0;648.0
10.0;646.0
11.0;644.0
12.0;637.0
13.0;629.0
14.0;624.0
15.0;620.0
0.0;626.0
1.0;634.0
2.0;643.0
3.0;660.0
4.0;670.0
5.0;673.0
6.0;670.0
7.0;666.0
8.0;655.0
9.0;642.0
10.0;629.0
11.0;623.0
12.0;619.0
13.0;610.0
14.0;605.0
15.0;598.0
0.0;592.0
1.0;591.0
2.0;590.0
3.0;586.0
4.0;580.0
5.0;573.0
6.0;564.0
7.0;555.0
8.0;559.0
9.0;568.0
10.0;579.0
11.0;581.0
12.0;577.0
13.0;573.0
14.0;568.0
15.0;569.0
0.0;565.0
1.0;556.0
2.0;554.0
3.0;550.0
4.0;551.0
5.0;550.0
6.0;544.0
7.0;538.0
8.0;501.0
9.0;0.0
10.0;0.0
11.0;0.0
12.0;0.0
13.0;0.0
14.0;0.0
15.0;0.0
0.0;0.0
1.0;0.0
2.0;0.0
3.0;0.0
4.0;0.0
5.0;0.0
6.0;0.0
7.0;0.0
8.0;0.0
9.0;0.0
10.0;0.0
11.0;0.0
12.0;0.0
13.0;0.0
14.0;43.0
15.0;119.0
0.0;195.0
1.0;272.0
2.0;341.0
3.0;398.0
4.0;446.0
5.0;474.0
6.0;460.0
7.0;426.0
8.0;344.0
9.0;251.0
10.0;262.0
11.0;315.0
12.0;367.0
13.0;416.0
14.0;463.0
15.0;509.0
0.0;552.0
1.0;593.0
2.0;627.0
3.0;649.0
4.0;673.0
5.0;694.0
6.0;682.0
7.0;627.0
8.0;531.0
9.0;369.0
10.0;240.0
11.0;247.0
12.0;285.0
13.0;334.0
14.0;387.0
15.0;430.0
0.0;478.0
1.0;525.0
2.0;565.0
3.0;608.0
4.0;644.0
5.0;664.0
6.0;639.0
7.0;552.0
8.0;448.0
9.0;313.0
10.0;160.0
11.0;118.0
12.0;169.0
13.0;236.0
14.0;309.0
15.0;369.0
0.0;418.0
1.0;457.0
2.0;508.0
3.0;561.0
4.0;604.0
5.0;631.0
6.0;636.0
7.0;594.0
8.0;500.0
9.0;406.0
10.0;255.0
11.0;113.0
12.0;118.0
13.0;178.0
14.0;242.0
15.0;306.0
0.0;362.0
1.0;413.0
2.0;460.0
3.0;510.0
4.0;561.0
5.0;603.0
6.0;631.0
7.0;626.0
8.0;558.0
9.0;466.0
10.0;363.0
11.0;218.0
12.0;123.0
13.0;154.0
14.0;214.0
15.0;275.0
0.0;337.0
1.0;388.0
2.0;440.0
3.0;494.0
4.0;547.0
5.0;599.0
6.0;638.0
7.0;664.0
8.0;658.0
9.0;604.0
10.0;543.0
11.0;453.0
12.0;356.0
13.0;355.0
14.0;412.0
15.0;448.0
0.0;481.0
1.0;510.0
2.0;540.0
3.0;575.0
4.0;616.0
5.0;660.0
6.0;695.0
7.0;725.0
8.0;744.0
9.0;739.0
10.0;699.0
11.0;654.0
12.0;552.0
13.0;465.0
14.0;481.0
15.0;521.0
0.0;562.0
1.0;599.0
2.0;626.0
3.0;649.0
4.0;679.0
5.0;715.0
6.0;756.0
7.0;798.0
8.0;841.0
9.0;861.0
10.0;845.0
11.0;812.0
12.0;765.0
13.0;684.0
14.0;623.0
15.0;622.0
0.0;625.0
1.0;626.0
2.0;626.0
3.0;628.0
4.0;634.0
5.0;643.0
6.0;647.0
7.0;652.0
8.0;661.0
9.0;672.0
10.0;682.0
11.0;694.0
12.0;709.0
13.0;720.0
14.0;733.0
15.0;749.0
0.0;766.0
1.0;787.0
2.0;807.0
3.0;830.0
4.0;851.0
5.0;872.0
6.0;898.0
7.0;921.0
8.0;945.0
9.0;970.0
10.0;994.0
11.0;1019.0
12.0;1022.0
13.0;1022.0
14.0;1022.0
15.0;1022.0
0.0;1022.0
1.0;1022.0
2.0;998.0
3.0;959.0
4.0;922.0
5.0;888.0
6.0;842.0
7.0;797.0
8.0;754.0
9.0;724.0
10.0;710.0
11.0;693.0
12.0;683.0
13.0;686.0
14.0;679.0
15.0;679.0
0.0;672.0
1.0;657.0
2.0;630.0
3.0;564.0
4.0;504.0
5.0;537.0
6.0;561.0
7.0;565.0
8.0;566.0
9.0;566.0
10.0;558.0
11.0;551.0
12.0;536.0
13.0;488.0
14.0;441.0
15.0;370.0
0.0;274.0
1.0;247.0
2.0;278.0
3.0;319.0
4.0;359.0
5.0;395.0
6.0;429.0
7.0;461.0
8.0;505.0
9.0;549.0
10.0;598.0
11.0;646.0
12.0;691.0
13.0;717.0
14.0;714.0
15.0;697.0
0.0;646.0
1.0;588.0
2.0;592.0
3.0;611.0
4.0;627.0
5.0;640.0
6.0;652.0
7.0;670.0
8.0;694.0
9.0;729.0
10.0;767.0
11.0;802.0
12.0;837.0
13.0;862.0
14.0;869.0
15.0;850.0
0.0;816.0
1.0;759.0
2.0;716.0
3.0;722.0
4.0;727.0
5.0;727.0
6.0;730.0
7.0;735.0
8.0;744.0
9.0;760.0
10.0;789.0
11.0;824.0
12.0;851.0
13.0;866.0
14.0;872.0
15.0;861.0
0.0;839.0
1.0;786.0
2.0;708.0
3.0;677.0
4.0;680.0
5.0;680.0
6.0;680.0
7.0;686.0
8.0;692.0
9.0;705.0
10.0;724.0
11.0;743.0
12.0;762.0
13.0;783.0
14.0;803.0
15.0;807.0
0.0;783.0
1.0;743.0
2.0;666.0
3.0;591.0
4.0;591.0
5.0;608.0
6.0;616.0
7.0;620.0
8.0;627.0
9.0;638.0
10.0;660.0
11.0;691.0
12.0;720.0
13.0;747.0
14.0;773.0
15.0;780.0
0.0;762.0
1.0;733.0
2.0;695.0
3.0;635.0
4.0;606.0
5.0;620.0
6.0;635.0
7.0;638.0
8.0;646.0
9.0;666.0
10.0;696.0
11.0;736.0
12.0;772.0
13.0;797.0
14.0;813.0
15.0;821.0
0.0;818.0
1.0;807.0
2.0;790.0
3.0;750.0
4.0;695.0
5.0;677.0
6.0;678.0
7.0;671.0
8.0;666.0
9.0;667.0
10.0;670.0
11.0;682.0
12.0;699.0
13.0;722.0
14.0;745.0
15.0;764.0
0.0;780.0
1.0;783.0
2.0;776.0
3.0;763.0
4.0;718.0
5.0;668.0
6.0;665.0
7.0;668.0
8.0;664.0
9.0;662.0
10.0;663.0
11.0;664.0
12.0;671.0
13.0;684.0
14.0;707.0
15.0;732.0
0.0;756.0
1.0;770.0
2.0;771.0
3.0;763.0
4.0;742.0
5.0;695.0
6.0;652.0
7.0;645.0
8.0;638.0
9.0;626.0
10.0;613.0
11.0;608.0
12.0;618.0
13.0;636.0
14.0;656.0
15.0;679.0
0.0;701.0
1.0;718.0
2.0;725.0
3.0;720.0
4.0;712.0
5.0;679.0
6.0;639.0
7.0;622.0
8.0;609.0
9.0;599.0
10.0;587.0
11.0;577.0
12.0;574.0
13.0;590.0
14.0;623.0
15.0;666.0
0.0;702.0
1.0;728.0
2.0;747.0
3.0;750.0
4.0;735.0
5.0;707.0
6.0;668.0
7.0;638.0
8.0;631.0
9.0;615.0
10.0;605.0
11.0;599.0
12.0;608.0
13.0;619.0
14.0;630.0
15.0;646.0
0.0;671.0
1.0;691.0
2.0;712.0
3.0;735.0
4.0;751.0
5.0;764.0
6.0;753.0
7.0;714.0
8.0;678.0
9.0;655.0
10.0;632.0
11.0;607.0
12.0;595.0
13.0;595.0
14.0;603.0
15.0;619.0
0.0;644.0
1.0;669.0
2.0;692.0
3.0;715.0
4.0;730.0
5.0;736.0
6.0;733.0
7.0;712.0
8.0;675.0
9.0;650.0
10.0;631.0
11.0;608.0
12.0;585.0
13.0;571.0
14.0;567.0
15.0;573.0
0.0;591.0
1.0;612.0
2.0;636.0
3.0;657.0
4.0;671.0
5.0;676.0
6.0;673.0
7.0;662.0
8.0;635.0
9.0;603.0
10.0;589.0
11.0;571.0
12.0;552.0
13.0;541.0
14.0;534.0
15.0;536.0
0.0;546.0
1.0;565.0
2.0;590.0
3.0;610.0
4.0;627.0
5.0;636.0
6.0;641.0
7.0;638.0
8.0;623.0
9.0;596.0
10.0;569.0
11.0;548.0
12.0;524.0
13.0;504.0
14.0;491.0
15.0;481.0
0.0;486.0
1.0;499.0
2.0;526.0
3.0;556.0
4.0;580.0
5.0;596.0
6.0;596.0
7.0;585.0
8.0;568.0
9.0;537.0
10.0;494.0
11.0;468.0
12.0;455.0
13.0;443.0
14.0;429.0
15.0;409.0
0.0;395.0
1.0;397.0
2.0;423.0
3.0;451.0
4.0;483.0
5.0;505.0
6.0;517.0
7.0;519.0
8.0;515.0
9.0;498.0
10.0;458.0
11.0;413.0
12.0;401.0
13.0;387.0
14.0;368.0
15.0;350.0
0.0;337.0
1.0;332.0
2.0;336.0
3.0;355.0
4.0;380.0
5.0;401.0
6.0;420.0
7.0;430.0
8.0;430.0
9.0;423.0
10.0;409.0
11.0;374.0
12.0;347.0
13.0;336.0
14.0;321.0
15.0;310.0
0.0;302.0
1.0;300.0
2.0;307.0
3.0;327.0
4.0;352.0
5.0;372.0
6.0;392.0
7.0;408.0
8.0;410.0
9.0;399.0
10.0;384.0
11.0;347.0
12.0;297.0
13.0;271.0
14.0;253.0
15.0;236.0
0.0;222.0
1.0;210.0
2.0;208.0
3.0;216.0
4.0;235.0
5.0;263.0
6.0;296.0
7.0;326.0
8.0;352.0
9.0;373.0
10.0;387.0
11.0;397.0
12.0;396.0
13.0;390.0
14.0;397.0
15.0;407.0
0.0;413.0
1.0;424.0
2.0;444.0
3.0;477.0
4.0;523.0
5.0;572.0
6.0;629.0
7.0;679.0
8.0;729.0
9.0;768.0
10.0;783.0
11.0;774.0
12.0;743.0
13.0;704.0
14.0;660.0
15.0;620.0
0.0;574.0
1.0;517.0
2.0;467.0
3.0;422.0
4.0;391.0
5.0;377.0
6.0;384.0
7.0;397.0
8.0;416.0
9.0;436.0
10.0;449.0
11.0;456.0
12.0;457.0
13.0;444.0
14.0;428.0
15.0;422.0
0.0;422.0
1.0;417.0
2.0;412.0
3.0;408.0
4.0;410.0
5.0;422.0
6.0;448.0
7.0;478.0
8.0;510.0
9.0;543.0
10.0;560.0
11.0;575.0
12.0;590.0
13.0;603.0
14.0;596.0
15.0;578.0
0.0;562.0
1.0;546.0
2.0;530.0
3.0;521.0
4.0;522.0
5.0;534.0
6.0;549.0
7.0;571.0
8.0;592.0
9.0;613.0
10.0;641.0
11.0;665.0
12.0;682.0
13.0;687.0
14.0;685.0
15.0;670.0
0.0;652.0
1.0;632.0
2.0;611.0
3.0;595.0
4.0;587.0
5.0;577.0
6.0;576.0
7.0;594.0
8.0;613.0
9.0;630.0
10.0;644.0
11.0;655.0
12.0;663.0
13.0;664.0
14.0;660.0
15.0;640.0
0.0;611.0
1.0;588.0
2.0;567.0
3.0;544.0
4.0;521.0
5.0;506.0
6.0;498.0
7.0;502.0
8.0;512.0
9.0;528.0
10.0;545.0
11.0;567.0
12.0;570.0
13.0;567.0
14.0;552.0
15.0;529.0
0.0;483.0
1.0;431.0
2.0;412.0
3.0;391.0
4.0;370.0
5.0;353.0
6.0;340.0
7.0;334.0
8.0;339.0
9.0;357.0
10.0;378.0
11.0;394.0
12.0;406.0
13.0;418.0
14.0;420.0
15.0;415.0
0.0;396.0
1.0;355.0
2.0;321.0
3.0;301.0
4.0;285.0
5.0;281.0
6.0;289.0
7.0;299.0
8.0;319.0
9.0;340.0
10.0;364.0
11.0;387.0
12.0;413.0
13.0;442.0
14.0;466.0
15.0;487.0
0.0;494.0
1.0;473.0
2.0;445.0
3.0;431.0
4.0;415.0
5.0;398.0
6.0;387.0
7.0;386.0
8.0;387.0
9.0;399.0
10.0;423.0
11.0;452.0
12.0;482.0
13.0;505.0
14.0;525.0
15.0;539.0
0.0;539.0
1.0;528.0
2.0;504.0
3.0;478.0
4.0;465.0
5.0;453.0
6.0;444.0
7.0;437.0
8.0;435.0
9.0;445.0
10.0;464.0
11.0;490.0
12.0;516.0
13.0;537.0
14.0;555.0
15.0;569.0
0.0;577.0
1.0;575.0
2.0;563.0
3.0;542.0
4.0;521.0
5.0;504.0
6.0;483.0
7.0;464.0
8.0;454.0
9.0;452.0
10.0;459.0
11.0;473.0
12.0;492.0
13.0;512.0
14.0;534.0
15.0;555.0
0.0;570.0
1.0;575.0
2.0;569.0
3.0;550.0
4.0;523.0
5.0;506.0
6.0;488.0
7.0;468.0
8.0;450.0
9.0;439.0
10.0;438.0
11.0;443.0
12.0;459.0
13.0;473.0
14.0;486.0
15.0;502.0
0.0;517.0
1.0;526.0
2.0;525.0
3.0;519.0
4.0;507.0
5.0;482.0
6.0;457.0
7.0;448.0
8.0;437.0
9.0;428.0
10.0;429.0
11.0;423.0
12.0;412.0
13.0;390.0
14.0;362.0
15.0;329.0
0.0;307.0
1.0;298.0
2.0;300.0
3.0;294.0
4.0;283.0
5.0;274.0
6.0;266.0
7.0;261.0
8.0;252.0
9.0;252.0
10.0;250.0
11.0;243.0
12.0;241.0
13.0;243.0
14.0;245.0
15.0;245.0
0.0;242.0
1.0;239.0
2.0;237.0
3.0;236.0
4.0;246.0
5.0;258.0
6.0;265.0
7.0;277.0
8.0;289.0
9.0;298.0
10.0;308.0
11.0;320.0
12.0;330.0
13.0;336.0
14.0;341.0
15.0;346.0
0.0;346.0
1.0;344.0
2.0;347.0
3.0;345.0
4.0;344.0
5.0;345.0
6.0;352.0
7.0;355.0
8.0;357.0
9.0;356.0
10.0;355.0
11.0;354.0
12.0;352.0
13.0;348.0
14.0;344.0
15.0;337.0
0.0;330.0
1.0;324.0
2.0;322.0
3.0;318.0
4.0;314.0
5.0;316.0
6.0;320.0
7.0;320.0
8.0;316.0
9.0;314.0
10.0;313.0
11.0;312.0
12.0;313.0
13.0;307.0
14.0;299.0
15.0;295.0
0.0;290.0
1.0;284.0
2.0;279.0
3.0;277.0
4.0;276.0
5.0;276.0
6.0;279.0
7.0;280.0
8.0;278.0
9.0;275.0
10.0;271.0
11.0;267.0
12.0;273.0
13.0;278.0
14.0;276.0
15.0;270.0
0.0;262.0
1.0;261.0
2.0;284.0
3.0;321.0
4.0;352.0
5.0;364.0
6.0;359.0
7.0;341.0
8.0;331.0
9.0;314.0
10.0;299.0
11.0;284.0
12.0;274.0
13.0;269.0
14.0;266.0
15.0;270.0
0.0;284.0
1.0;292.0
2.0;290.0
3.0;291.0
4.0;297.0
5.0;298.0
6.0;302.0
7.0;306.0
8.0;310.0
9.0;314.0
10.0;316.0
11.0;321.0
12.0;326.0
13.0;328.0
14.0;331.0
15.0;329.0
0.0;327.0
1.0;328.0
2.0;327.0
3.0;325.0
4.0;326.0
5.0;332.0
6.0;335.0
7.0;337.0
8.0;342.0
9.0;344.0
10.0;343.0
11.0;345.0
12.0;349.0
13.0;351.0
14.0;352.0
15.0;351.0
0.0;349.0
1.0;350.0
2.0;351.0
3.0;350.0
4.0;346.0
5.0;341.0
6.0;334.0
7.0;324.0
8.0;313.0
9.0;305.0
10.0;298.0
11.0;292.0
12.0;287.0
13.0;284.0
14.0;285.0
15.0;290.0
0.0;293.0
1.0;292.0
2.0;297.0
3.0;307.0
4.0;320.0
5.0;334.0
6.0;349.0
7.0;367.0
8.0;388.0
9.0;413.0
10.0;437.0
11.0;460.0
12.0;487.0
13.0;518.0
14.0;550.0
15.0;581.0
0.0;611.0
1.0;638.0
2.0;660.0
3.0;675.0
4.0;680.0
5.0;674.0
6.0;660.0
7.0;640.0
8.0;608.0
9.0;571.0
10.0;537.0
11.0;495.0
12.0;446.0
13.0;404.0
14.0;371.0
15.0;354.0
0.0;343.0
1.0;322.0
2.0;302.0
3.0;286.0
4.0;274.0
5.0;266.0
6.0;266.0
7.0;270.0
8.0;272.0
9.0;277.0
10.0;282.0
11.0;293.0
12.0;304.0
13.0;311.0
14.0;321.0
15.0;333.0
0.0;341.0
1.0;353.0
2.0;361.0
3.0;365.0
4.0;369.0
5.0;382.0
6.0;397.0
7.0;404.0
8.0;404.0
9.0;399.0
10.0;400.0
11.0;405.0
12.0;411.0
13.0;417.0
14.0;423.0
15.0;431.0
0.0;441.0
1.0;454.0
2.0;465.0
3.0;472.0
4.0;478.0
5.0;484.0
6.0;487.0
7.0;491.0
8.0;495.0
9.0;495.0
10.0;498.0
11.0;504.0
12.0;510.0
13.0;516.0
14.0;524.0
15.0;531.0
0.0;536.0
1.0;538.0
2.0;536.0
3.0;539.0
4.0;539.0
5.0;537.0
6.0;536.0
7.0;531.0
8.0;528.0
9.0;529.0
10.0;529.0
11.0;531.0
12.0;535.0
13.0;538.0
14.0;540.0
15.0;541.0
0.0;545.0
1.0;546.0
2.0;545.0
3.0;549.0
4.0;557.0
5.0;566.0
6.0;577.0
7.0;589.0
8.0;593.0
9.0;598.0
10.0;606.0
11.0;605.0
12.0;587.0
13.0;556.0
14.0;527.0
15.0;504.0
0.0;494.0
1.0;487.0
2.0;483.0
3.0;485.0
4.0;492.0
5.0;498.0
6.0;503.0
7.0;509.0
8.0;512.0
9.0;514.0
10.0;514.0
11.0;516.0
12.0;519.0
13.0;525.0
14.0;537.0
15.0;545.0
0.0;553.0
1.0;557.0
2.0;559.0
3.0;554.0
4.0;565.0
5.0;583.0
6.0;602.0
7.0;627.0
8.0;647.0
9.0;641.0
10.0;622.0
11.0;610.0
12.0;611.0
13.0;615.0
14.0;621.0
15.0;632.0
0.0;638.0
1.0;641.0
2.0;643.0
3.0;645.0
4.0;645.0
5.0;649.0
6.0;662.0
7.0;671.0
8.0;664.0
9.0;653.0
10.0;648.0
11.0;649.0
12.0;651.0
13.0;657.0
14.0;661.0
15.0;659.0
0.0;657.0
1.0;658.0
2.0;661.0
3.0;664.0
4.0;665.0
5.0;665.0
6.0;668.0
7.0;668.0
8.0;663.0
9.0;647.0
10.0;665.0
11.0;684.0
12.0;688.0
13.0;687.0
14.0;684.0
15.0;1011.0
0.0;963.0
1.0;902.0
2.0;854.0
3.0;807.0
4.0;752.0
5.0;696.0
6.0;638.0
7.0;582.0
8.0;533.0
9.0;491.0
10.0;451.0
11.0;415.0
12.0;384.0
13.0;354.0
14.0;316.0
15.0;270.0
0.0;221.0
1.0;170.0
2.0;118.0
3.0;69.0
4.0;22.0
5.0;0.0
6.0;0.0
7.0;0.0
8.0;0.0
9.0;0.0
10.0;0.0
11.0;0.0
12.0;0.0
13.0;0.0
14.0;0.0
15.0;0.0
0.0;0.0
1.0;0.0
2.0;0.0
3.0;0.0
4.0;0.0
5.0;0.0
6.0;0.0
7.0;0.0
8.0;0.0
9.0;0.0
10.0;0.0
11.0;0.0
12.0;0.0
13.0;0.0
14.0;0.0
15.0;0.0
0.0;0.0
1.0;0.0
2.0;0.0
3.0;0.0
4.0;0.0
5.0;0.0
6.0;0.0
7.0;0.0
8.0;0.0
9.0;0.0
10.0;0.0
11.0;0.0
12.0;0.0
13.0;0.0
14.0;0.0
15.0;0.0
0.0;0.0
1.0;0.0
2.0;0.0
3.0;0.0
4.0;0.0
5.0;0.0
6.0;0.0
7.0;0.0
8.0;0.0
9.0;0.0
10.0;0.0
11.0;0.0
12.0;16.0
13.0;46.0
14.0;73.0
15.0;102.0
0.0;134.0
1.0;161.0
2.0;177.0
3.0;182.0
4.0;182.0
5.0;177.0
6.0;171.0
7.0;164.0
8.0;159.0
9.0;158.0
10.0;161.0
11.0;169.0
12.0;190.0
13.0;218.0
14.0;248.0
15.0;279.0
0.0;311.0
1.0;339.0
2.0;363.0
3.0;380.0
4.0;393.0
5.0;398.0
6.0;396.0
7.0;395.0
8.0;403.0
9.0;416.0
10.0;422.0
11.0;419.0
12.0;448.0
13.0;1023.0
14.0;1022.0
15.0;1022.0
0.0;1022.0
1.0;1022.0
2.0;1022.0
3.0;1022.0
4.0;1018.0
5.0;888.0
6.0;796.0
7.0;720.0
8.0;655.0
9.0;600.0
10.0;562.0
11.0;545.0
12.0;1022.0
13.0;1022.0
14.0;1022.0
15.0;1022.0
0.0;1022.0
1.0;1022.0
2.0;1022.0
3.0;1022.0
4.0;1022.0
5.0;1022.0
6.0;936.0
7.0;782.0
8.0;658.0
9.0;558.0
10.0;483.0
11.0;427.0
12.0;385.0
13.0;350.0
14.0;323.0
15.0;314.0
0.0;313.0
1.0;323.0
2.0;339.0
3.0;345.0
4.0;347.0
5.0;350.0
6.0;339.0
7.0;309.0
8.0;274.0
9.0;246.0
10.0;219.0
11.0;193.0
12.0;175.0
13.0;159.0
14.0;150.0
15.0;157.0
0.0;177.0
1.0;203.0
2.0;227.0
3.0;250.0
4.0;267.0
5.0;277.0
6.0;279.0
7.0;275.0
8.0;261.0
9.0;244.0
10.0;225.0
11.0;201.0
12.0;180.0
13.0;167.0
14.0;162.0
15.0;168.0
0.0;178.0
1.0;193.0
2.0;209.0
3.0;225.0
4.0;237.0
5.0;239.0
6.0;232.0
7.0;224.0
8.0;210.0
9.0;189.0
10.0;168.0
11.0;145.0
12.0;124.0
13.0;108.0
14.0;96.0
15.0;94.0
0.0;106.0
1.0;131.0
2.0;166.0
3.0;203.0
4.0;238.0
5.0;270.0
6.0;288.0
7.0;301.0
8.0;313.0
9.0;309.0
10.0;305.0
11.0;310.0
12.0;317.0
13.0;319.0
14.0;319.0
15.0;330.0
0.0;343.0
1.0;357.0
2.0;373.0
3.0;376.0
4.0;369.0
5.0;360.0
6.0;360.0
7.0;360.0
8.0;351.0
9.0;309.0
10.0;233.0
11.0;157.0
12.0;87.0
13.0;17.0
14.0;0.0
15.0;0.0
0.0;0.0
1.0;0.0
2.0;0.0
3.0;0.0
4.0;0.0
5.0;0.0
6.0;0.0
7.0;0.0
8.0;0.0
9.0;0.0
10.0;0.0
11.0;0.0
12.0;0.0
13.0;0.0
14.0;0.0
15.0;0.0
0.0;0.0
1.0;0.0
2.0;0.0
3.0;0.0
4.0;0.0
5.0;0.0
6.0;0.0
7.0;9.0
8.0;0.0
9.0;0.0
10.0;0.0
11.0;0.0
12.0;0.0
13.0;0.0
14.0;0.0
15.0;0.0
0.0;0.0
1.0;0.0
2.0;0.0
3.0;0.0
4.0;0.0
5.0;26.0
6.0;61.0
7.0;91.0
8.0;100.0
9.0;80.0
10.0;47.0
11.0;0.0
12.0;0.0
13.0;0.0
14.0;0.0
15.0;0.0
0.0;0.0
1.0;0.0
2.0;26.0
3.0;55.0
4.0;88.0
5.0;122.0
6.0;161.0
7.0;204.0
8.0;236.0
9.0;246.0
10.0;241.0
11.0;228.0
12.0;173.0
13.0;102.0
14.0;103.0
15.0;131.0
0.0;160.0
1.0;207.0
2.0;272.0
3.0;321.0
4.0;339.0
5.0;359.0
6.0;380.0
7.0;408.0
8.0;433.0
9.0;457.0
10.0;463.0
11.0;463.0
12.0;452.0
13.0;401.0
14.0;356.0
15.0;361.0
0.0;377.0
1.0;394.0
2.0;408.0
3.0;423.0
4.0;446.0
5.0;473.0
6.0;504.0
7.0;535.0
8.0;564.0
9.0;600.0
10.0;627.0
11.0;643.0
12.0;647.0
13.0;639.0
14.0;615.0
15.0;613.0
0.0;619.0
1.0;613.0
2.0;607.0
3.0;611.0
4.0;627.0
5.0;649.0
6.0;676.0
7.0;705.0
8.0;733.0
9.0;761.0
10.0;789.0
11.0;812.0
12.0;822.0
13.0;826.0
14.0;812.0
15.0;784.0
0.0;773.0
1.0;766.0
2.0;760.0
3.0;757.0
4.0;755.0
5.0;760.0
6.0;768.0
7.0;784.0
8.0;807.0
9.0;837.0
10.0;863.0
11.0;875.0
12.0;870.0
13.0;861.0
14.0;841.0
15.0;793.0
0.0;749.0
1.0;743.0
2.0;736.0
3.0;724.0
4.0;715.0
5.0;710.0
6.0;708.0
7.0;713.0
8.0;728.0
9.0;748.0
10.0;777.0
11.0;804.0
12.0;820.0
13.0;825.0
14.0;813.0
15.0;777.0
0.0;732.0
1.0;704.0
2.0;688.0
3.0;679.0
4.0;679.0
5.0;681.0
6.0;681.0
7.0;693.0
8.0;715.0
9.0;742.0
10.0;769.0
11.0;796.0
12.0;820.0
13.0;836.0
14.0;1022.0
15.0;1022.0
0.0;1022.0
1.0;1022.0
2.0;1022.0
3.0;1022.0
4.0;1015.0
5.0;999.0
6.0;988.0
7.0;978.0
8.0;970.0
9.0;963.0
10.0;957.0
11.0;952.0
12.0;946.0
13.0;940.0
14.0;935.0
15.0;931.0
0.0;928.0
1.0;923.0
2.0;920.0
3.0;915.0
4.0;911.0
5.0;908.0
6.0;904.0
7.0;901.0
8.0;897.0
9.0;893.0
10.0;891.0
11.0;886.0
12.0;882.0
13.0;880.0
14.0;876.0
15.0;873.0
0.0;870.0
1.0;866.0
2.0;862.0
3.0;860.0
4.0;856.0
5.0;852.0
6.0;848.0
7.0;849.0
8.0;848.0
9.0;845.0
10.0;839.0
11.0;833.0
12.0;829.0
13.0;825.0
14.0;824.0
15.0;824.0
0.0;823.0
1.0;821.0
2.0;818.0
3.0;815.0
4.0;813.0
5.0;811.0
6.0;806.0
7.0;807.0
8.0;806.0
9.0;801.0
10.0;801.0
11.0;801.0
12.0;796.0
13.0;790.0
14.0;790.0
15.0;788.0
0.0;786.0
1.0;786.0
2.0;784.0
3.0;782.0
4.0;782.0
5.0;780.0
6.0;777.0
7.0;777.0
8.0;776.0
9.0;774.0
10.0;773.0
11.0;771.0
12.0;773.0
13.0;772.0
14.0;769.0
15.0;766.0
0.0;762.0
1.0;761.0
2.0;760.0
3.0;756.0
4.0;753.0
5.0;750.0
6.0;749.0
7.0;747.0
8.0;742.0
9.0;736.0
10.0;728.0
11.0;721.0
12.0;713.0
13.0;704.0
14.0;697.0
15.0;688.0
0.0;680.0
1.0;673.0
2.0;667.0
3.0;659.0
4.0;651.0
5.0;645.0
6.0;639.0
7.0;632.0
8.0;627.0
9.0;622.0
10.0;618.0
11.0;613.0
12.0;609.0
13.0;605.0
14.0;599.0
15.0;595.0
0.0;590.0
1.0;585.0
2.0;581.0
3.0;577.0
4.0;576.0
5.0;573.0
6.0;570.0
7.0;566.0
8.0;562.0
9.0;560.0
10.0;560.0
11.0;558.0
12.0;557.0
13.0;556.0
14.0;554.0
15.0;551.0
0.0;550.0
1.0;546.0
2.0;546.0
3.0;545.0
4.0;546.0
5.0;539.0
6.0;535.0
7.0;535.0
8.0;534.0
9.0;533.0
10.0;533.0
11.0;533.0
12.0;533.0
13.0;531.0
14.0;532.0
15.0;531.0
0.0;531.0
1.0;531.0
2.0;531.0
3.0;528.0
4.0;527.0
5.0;527.0
6.0;526.0
7.0;524.0
8.0;523.0
9.0;523.0
10.0;524.0
11.0;521.0
12.0;519.0
13.0;519.0
14.0;520.0
15.0;519.0
0.0;520.0
1.0;521.0
2.0;520.0
3.0;519.0
4.0;519.0
5.0;518.0
6.0;517.0
7.0;516.0
8.0;517.0
9.0;516.0
10.0;514.0
11.0;515.0
12.0;517.0
13.0;517.0
14.0;518.0
15.0;523.0
0.0;535.0
1.0;540.0
2.0;547.0
3.0;560.0
4.0;572.0
5.0;590.0
6.0;608.0
7.0;624.0
8.0;635.0
9.0;645.0
10.0;654.0
11.0;663.0
12.0;678.0
13.0;694.0
14.0;708.0
15.0;728.0
0.0;749.0
1.0;763.0
2.0;768.0
3.0;761.0
4.0;743.0
5.0;715.0
6.0;683.0
7.0;644.0
8.0;597.0
9.0;546.0
10.0;487.0
11.0;422.0
12.0;368.0
13.0;322.0
14.0;292.0
15.0;276.0
0.0;270.0
1.0;266.0
2.0;260.0
3.0;251.0
4.0;240.0
5.0;230.0
6.0;217.0
7.0;204.0
8.0;195.0
9.0;183.0
10.0;160.0
11.0;132.0
12.0;108.0
13.0;87.0
14.0;77.0
15.0;73.0
0.0;76.0
1.0;82.0
2.0;85.0
3.0;81.0
4.0;79.0
5.0;78.0
6.0;81.0
7.0;80.0
8.0;76.0
9.0;509.0
10.0;1022.0
11.0;1022.0
12.0;1022.0
13.0;1022.0
14.0;1022.0
15.0;1022.0
0.0;1023.0
1.0;1022.0
2.0;892.0
3.0;796.0
4.0;723.0
5.0;666.0
6.0;623.0
7.0;589.0
8.0;563.0
9.0;545.0
10.0;530.0
11.0;1022.0
12.0;1023.0
13.0;1022.0
14.0;1022.0
15.0;947.0
0.0;828.0
1.0;736.0
2.0;669.0
3.0;618.0
4.0;579.0
5.0;549.0
6.0;527.0
7.0;508.0
8.0;495.0
9.0;486.0
10.0;479.0
11.0;472.0
12.0;467.0
13.0;465.0
14.0;462.0
15.0;462.0
0.0;461.0
1.0;460.0
2.0;460.0
3.0;460.0
4.0;462.0
5.0;462.0
6.0;463.0
7.0;462.0
8.0;462.0
9.0;463.0
10.0;463.0
11.0;463.0
12.0;464.0
13.0;464.0
14.0;464.0
15.0;465.0
0.0;466.0
1.0;468.0
2.0;467.0
3.0;467.0
4.0;469.0
5.0;467.0
6.0;468.0
7.0;468.0
8.0;470.0
9.0;468.0
10.0;468.0
11.0;468.0
12.0;465.0
13.0;467.0
14.0;469.0
15.0;468.0
0.0;472.0
1.0;474.0
2.0;470.0
3.0;469.0
4.0;467.0
5.0;470.0
6.0;468.0
7.0;468.0
8.0;468.0
9.0;470.0
10.0;469.0
11.0;468.0
12.0;468.0
13.0;470.0
14.0;468.0
15.0;467.0
0.0;466.0
1.0;471.0
2.0;472.0
3.0;471.0
4.0;473.0
5.0;475.0
6.0;476.0
7.0;476.0
8.0;476.0
9.0;475.0
10.0;475.0
11.0;474.0
12.0;473.0
13.0;472.0
14.0;469.0
15.0;470.0
0.0;471.0
1.0;471.0
2.0;472.0
3.0;473.0
4.0;476.0
5.0;477.0
6.0;480.0
7.0;480.0
8.0;482.0
9.0;481.0
10.0;483.0
11.0;484.0
12.0;484.0
13.0;485.0
14.0;485.0
15.0;486.0
0.0;487.0
1.0;488.0
2.0;489.0
3.0;490.0
4.0;492.0
5.0;493.0
6.0;495.0
7.0;496.0
8.0;497.0
9.0;499.0
10.0;498.0
11.0;499.0
12.0;500.0
13.0;500.0
14.0;500.0
15.0;500.0
0.0;500.0
1.0;499.0
2.0;499.0
3.0;502.0
4.0;504.0
5.0;506.0
6.0;509.0
7.0;509.0
8.0;508.0
9.0;505.0
10.0;505.0
11.0;504.0
12.0;504.0
13.0;507.0
14.0;508.0
15.0;506.0
0.0;506.0
1.0;506.0
2.0;506.0
3.0;509.0
4.0;509.0
5.0;507.0
6.0;508.0
7.0;510.0
8.0;507.0
9.0;507.0
10.0;508.0
11.0;508.0
12.0;507.0
13.0;506.0
14.0;509.0
15.0;510.0
0.0;508.0
1.0;508.0
2.0;507.0
3.0;508.0
4.0;506.0
5.0;506.0
6.0;508.0
7.0;510.0
8.0;510.0
9.0;510.0
10.0;509.0
11.0;510.0
12.0;511.0
13.0;510.0
14.0;510.0
15.0;509.0
0.0;825.0
1.0;1022.0
2.0;1022.0
3.0;1023.0
4.0;1022.0
5.0;1022.0
6.0;988.0
7.0;863.0
8.0;768.0
9.0;697.0
10.0;642.0
11.0;600.0
12.0;568.0
13.0;544.0
14.0;525.0
15.0;1019.0
0.0;1022.0
1.0;1022.0
2.0;1022.0
3.0;1022.0
4.0;902.0
5.0;892.0
6.0;1022.0
7.0;1022.0
8.0;902.0
9.0;784.0
10.0;696.0
11.0;627.0
12.0;577.0
13.0;537.0
14.0;578.0
15.0;1022.0
0.0;1022.0
1.0;911.0
2.0;765.0
3.0;651.0
4.0;563.0
5.0;498.0
6.0;448.0
7.0;1022.0
8.0;848.0
9.0;734.0
10.0;652.0
11.0;590.0
12.0;542.0
13.0;507.0
14.0;479.0
15.0;1022.0
0.0;1022.0
1.0;979.0
2.0;824.0
3.0;693.0
4.0;586.0
5.0;498.0
6.0;422.0
7.0;461.0
8.0;1022.0
9.0;934.0
10.0;796.0
11.0;690.0
12.0;610.0
13.0;552.0
14.0;508.0
15.0;1022.0
0.0;1022.0
1.0;964.0
2.0;790.0
3.0;656.0
4.0;558.0
5.0;477.0
6.0;422.0
7.0;388.0
8.0;716.0
9.0;1022.0
10.0;1022.0
11.0;924.0
12.0;783.0
13.0;673.0
14.0;593.0
15.0;1022.0
0.0;1022.0
1.0;1022.0
2.0;1022.0
3.0;831.0
4.0;667.0
5.0;541.0
6.0;446.0
7.0;370.0
8.0;309.0
9.0;776.0
10.0;1022.0
11.0;1022.0
12.0;1022.0
13.0;850.0
14.0;714.0
15.0;1022.0
0.0;1022.0
1.0;1022.0
2.0;1022.0
3.0;1022.0
4.0;867.0
5.0;711.0
6.0;591.0
7.0;488.0
8.0;405.0
9.0;336.0
10.0;1022.0
11.0;1023.0
12.0;1022.0
13.0;1022.0
14.0;1022.0
15.0;1022.0
0.0;1022.0
1.0;1022.0
2.0;1022.0
3.0;977.0
4.0;767.0
5.0;604.0
6.0;472.0
7.0;366.0
8.0;280.0
9.0;210.0
10.0;155.0
11.0;113.0
12.0;86.0
13.0;1022.0
14.0;1022.0
15.0;1022.0
0.0;1022.0
1.0;1022.0
2.0;874.0
3.0;659.0
4.0;498.0
5.0;369.0
6.0;255.0
7.0;164.0
8.0;95.0
9.0;42.0
10.0;0.0
11.0;0.0
12.0;0.0
13.0;0.0
14.0;0.0
15.0;0.0
0.0;0.0
1.0;0.0
2.0;0.0
3.0;0.0
4.0;0.0
5.0;0.0
6.0;0.0
7.0;0.0
8.0;0.0
9.0;0.0
10.0;0.0
11.0;0.0
12.0;0.0
13.0;0.0
14.0;0.0
15.0;0.0
0.0;0.0
1.0;0.0
2.0;0.0
3.0;0.0
4.0;0.0
5.0;0.0
6.0;0.0
7.0;0.0
8.0;0.0
9.0;0.0
10.0;0.0
11.0;0.0
12.0;0.0
13.0;0.0
14.0;0.0
15.0;0.0
0.0;0.0
1.0;0.0
2.0;0.0
3.0;0.0
4.0;0.0
5.0;0.0
6.0;0.0
7.0;0.0
8.0;0.0
9.0;0.0
10.0;0.0
11.0;0.0
12.0;0.0
13.0;0.0
14.0;0.0
15.0;0.0
0.0;0.0
1.0;0.0
2.0;0.0
3.0;0.0
4.0;0.0
5.0;0.0
6.0;0.0
7.0;0.0
8.0;0.0
9.0;0.0
10.0;0.0
11.0;0.0
12.0;0.0
13.0;0.0
14.0;0.0
15.0;0.0
0.0;0.0
1.0;0.0
2.0;0.0
3.0;0.0
4.0;0.0
5.0;0.0
6.0;0.0
7.0;0.0
8.0;0.0
9.0;0.0
10.0;0.0
11.0;0.0
12.0;0.0
13.0;0.0
14.0;0.0
15.0;0.0
0.0;0.0
1.0;0.0
2.0;0.0
3.0;0.0
4.0;0.0
5.0;0.0
6.0;0.0
7.0;0.0
8.0;0.0
9.0;0.0
10.0;0.0
11.0;0.0
12.0;0.0
13.0;0.0
14.0;0.0
15.0;0.0
0.0;0.0
1.0;0.0
2.0;0.0
3.0;0.0
4.0;0.0
5.0;0.0
6.0;15.0
7.0;25.0
8.0;41.0
9.0;51.0
10.0;61.0
11.0;71.0
12.0;76.0
13.0;87.0
14.0;99.0
15.0;110.0
0.0;121.0
1.0;128.0
2.0;136.0
3.0;146.0
4.0;156.0
5.0;164.0
6.0;172.0
7.0;175.0
8.0;173.0
9.0;173.0
10.0;180.0
11.0;191.0
12.0;198.0
13.0;205.0
14.0;214.0
15.0;223.0
0.0;235.0
1.0;250.0
2.0;261.0
3.0;271.0
4.0;278.0
5.0;276.0
6.0;273.0
7.0;274.0
8.0;277.0
9.0;288.0
10.0;306.0
11.0;320.0
12.0;329.0
13.0;331.0
14.0;334.0
15.0;338.0
0.0;342.0
1.0;348.0
2.0;351.0
3.0;353.0
4.0;357.0
5.0;359.0
6.0;359.0
7.0;362.0
8.0;367.0
9.0;368.0
10.0;369.0
11.0;370.0
12.0;377.0
13.0;376.0
14.0;375.0
15.0;375.0
0.0;374.0
1.0;374.0
2.0;375.0
3.0;379.0
4.0;388.0
5.0;415.0
6.0;449.0
7.0;470.0
8.0;483.0
9.0;495.0
10.0;491.0
11.0;474.0
12.0;462.0
13.0;462.0
14.0;467.0
15.0;473.0
0.0;478.0
1.0;479.0
2.0;481.0
3.0;483.0
4.0;484.0
5.0;487.0
6.0;490.0
7.0;491.0
8.0;489.0
9.0;486.0
10.0;485.0
11.0;486.0
12.0;490.0
13.0;496.0
14.0;495.0
15.0;496.0
0.0;503.0
1.0;509.0
2.0;515.0
3.0;516.0
4.0;512.0
5.0;508.0
6.0;505.0
7.0;505.0
8.0;505.0
9.0;507.0
10.0;508.0
11.0;510.0
12.0;512.0
13.0;517.0
14.0;520.0
15.0;519.0
0.0;517.0
1.0;514.0
2.0;513.0
3.0;515.0
4.0;521.0
5.0;531.0
6.0;543.0
7.0;559.0
8.0;566.0
9.0;567.0
10.0;569.0
11.0;574.0
12.0;571.0
13.0;564.0
14.0;557.0
15.0;557.0
0.0;554.0
1.0;550.0
2.0;551.0
3.0;551.0
4.0;554.0
5.0;557.0
6.0;554.0
7.0;548.0
8.0;543.0
9.0;550.0
10.0;567.0
11.0;578.0
12.0;582.0
13.0;582.0
14.0;582.0
15.0;575.0
0.0;561.0
1.0;556.0
2.0;563.0
3.0;572.0
4.0;582.0
5.0;588.0
6.0;588.0
7.0;587.0
8.0;585.0
9.0;579.0
10.0;570.0
11.0;560.0
12.0;554.0
13.0;548.0
14.0;547.0
15.0;550.0
0.0;548.0
1.0;543.0
2.0;546.0
3.0;551.0
4.0;552.0
5.0;557.0
6.0;565.0
7.0;569.0
8.0;569.0
9.0;571.0
10.0;568.0
11.0;559.0
12.0;556.0
13.0;556.0
14.0;555.0
15.0;554.0
0.0;556.0
1.0;558.0
2.0;558.0
3.0;560.0
4.0;558.0
5.0;557.0
6.0;559.0
7.0;562.0
8.0;559.0
9.0;558.0
10.0;559.0
11.0;556.0
12.0;552.0
13.0;551.0
14.0;551.0
15.0;550.0
0.0;551.0
1.0;553.0
2.0;556.0
3.0;562.0
4.0;567.0
5.0;570.0
6.0;570.0
7.0;571.0
8.0;567.0
9.0;563.0
10.0;564.0
11.0;570.0
12.0;576.0
13.0;574.0
14.0;574.0
15.0;575.0
0.0;578.0
1.0;586.0
2.0;607.0
3.0;619.0
4.0;627.0
5.0;633.0
6.0;634.0
7.0;633.0
8.0;621.0
9.0;600.0
10.0;588.0
11.0;589.0
12.0;593.0
13.0;603.0
14.0;615.0
15.0;617.0
0.0;615.0
1.0;621.0
2.0;629.0
3.0;637.0
4.0;647.0
5.0;656.0
6.0;667.0
7.0;671.0
8.0;671.0
9.0;665.0
10.0;655.0
11.0;645.0
12.0;639.0
13.0;624.0
14.0;608.0
15.0;596.0
0.0;586.0
1.0;574.0
2.0;569.0
3.0;575.0
4.0;569.0
5.0;564.0
6.0;567.0
7.0;566.0
8.0;558.0
9.0;551.0
10.0;550.0
11.0;544.0
12.0;535.0
13.0;526.0
14.0;518.0
15.0;516.0
0.0;520.0
1.0;529.0
2.0;545.0
3.0;568.0
4.0;591.0
5.0;610.0
6.0;636.0
7.0;667.0
8.0;692.0
9.0;717.0
10.0;741.0
11.0;767.0
12.0;796.0
13.0;821.0
14.0;847.0
15.0;871.0
0.0;883.0
1.0;884.0
2.0;880.0
3.0;869.0
4.0;853.0
5.0;834.0
6.0;808.0
7.0;777.0
8.0;740.0
9.0;699.0
10.0;659.0
11.0;619.0
12.0;583.0
13.0;557.0
14.0;540.0
15.0;525.0
0.0;513.0
1.0;503.0
2.0;500.0
3.0;504.0
4.0;512.0
5.0;519.0
6.0;520.0
7.0;523.0
8.0;531.0
9.0;533.0
10.0;535.0
11.0;539.0
12.0;537.0
13.0;532.0
14.0;527.0
15.0;532.0
0.0;538.0
1.0;544.0
2.0;551.0
3.0;557.0
4.0;565.0
5.0;565.0
6.0;566.0
7.0;569.0
8.0;577.0
9.0;587.0
10.0;597.0
11.0;617.0
12.0;640.0
13.0;654.0
14.0;652.0
15.0;648.0
0.0;640.0
1.0;629.0
2.0;623.0
3.0;618.0
4.0;615.0
5.0;617.0
6.0;620.0
7.0;624.0
8.0;631.0
9.0;644.0
10.0;658.0
11.0;665.0
12.0;673.0
13.0;681.0
14.0;685.0
15.0;686.0
0.0;681.0
1.0;673.0
2.0;668.0
3.0;666.0
4.0;662.0
5.0;655.0
6.0;656.0
7.0;661.0
8.0;664.0
9.0;673.0
10.0;684.0
11.0;696.0
12.0;703.0
13.0;707.0
14.0;702.0
15.0;691.0
0.0;687.0
1.0;683.0
2.0;673.0
3.0;664.0
4.0;657.0
5.0;655.0
6.0;657.0
7.0;664.0
8.0;672.0
9.0;680.0
10.0;692.0
11.0;704.0
12.0;713.0
13.0;719.0
14.0;721.0
15.0;723.0
0.0;723.0
1.0;719.0
2.0;716.0
3.0;718.0
4.0;718.0
5.0;714.0
6.0;711.0
7.0;717.0
8.0;722.0
9.0;723.0
10.0;736.0
11.0;752.0
12.0;752.0
13.0;744.0
14.0;743.0
15.0;747.0
0.0;751.0
1.0;765.0
2.0;765.0
3.0;760.0
4.0;749.0
5.0;738.0
6.0;732.0
7.0;736.0
8.0;743.0
9.0;741.0
10.0;733.0
11.0;735.0
12.0;743.0
13.0;750.0
14.0;760.0
15.0;766.0
0.0;769.0
1.0;768.0
2.0;765.0
3.0;761.0
4.0;749.0
5.0;737.0
6.0;728.0
7.0;723.0
8.0;728.0
9.0;731.0
10.0;733.0
11.0;734.0
12.0;734.0
13.0;736.0
14.0;736.0
15.0;734.0
0.0;736.0
1.0;735.0
2.0;728.0
3.0;723.0
4.0;719.0
5.0;710.0
6.0;703.0
7.0;700.0
8.0;697.0
9.0;697.0
10.0;699.0
11.0;704.0
12.0;708.0
13.0;714.0
14.0;719.0
15.0;719.0
0.0;715.0
1.0;709.0
2.0;701.0
3.0;694.0
4.0;690.0
5.0;706.0
6.0;721.0
7.0;733.0
8.0;741.0
9.0;745.0
10.0;748.0
11.0;747.0
12.0;744.0
13.0;742.0
14.0;739.0
15.0;734.0
0.0;730.0
1.0;725.0
2.0;720.0
3.0;714.0
4.0;710.0
5.0;705.0
6.0;701.0
7.0;698.0
8.0;694.0
9.0;691.0
10.0;689.0
11.0;684.0
12.0;683.0
13.0;679.0
14.0;679.0
15.0;676.0
0.0;674.0
1.0;671.0
2.0;670.0
3.0;668.0
4.0;666.0
5.0;664.0
6.0;663.0
7.0;658.0
8.0;659.0
9.0;657.0
10.0;655.0
11.0;654.0
12.0;652.0
13.0;649.0
14.0;651.0
15.0;652.0
0.0;656.0
1.0;655.0
2.0;652.0
3.0;644.0
4.0;642.0
5.0;641.0
6.0;641.0
7.0;639.0
8.0;639.0
9.0;637.0
10.0;638.0
11.0;637.0
12.0;637.0
13.0;635.0
14.0;633.0
15.0;635.0
0.0;634.0
1.0;633.0
2.0;632.0
3.0;633.0
4.0;633.0
5.0;629.0
6.0;625.0
7.0;624.0
8.0;624.0
9.0;623.0
10.0;622.0
11.0;623.0
12.0;624.0
13.0;623.0
14.0;621.0
15.0;620.0
0.0;622.0
1.0;622.0
2.0;620.0
3.0;619.0
4.0;618.0
5.0;617.0
6.0;617.0
7.0;615.0
8.0;614.0
9.0;614.0
10.0;612.0
11.0;611.0
12.0;611.0
13.0;610.0
14.0;607.0
15.0;603.0
0.0;601.0
1.0;599.0
2.0;595.0
3.0;591.0
4.0;589.0
5.0;584.0
6.0;580.0
7.0;577.0
8.0;573.0
9.0;569.0
10.0;567.0
11.0;563.0
12.0;561.0
13.0;559.0
14.0;557.0
15.0;555.0
0.0;555.0
1.0;554.0
2.0;551.0
3.0;549.0
4.0;547.0
5.0;544.0
6.0;543.0
7.0;541.0
8.0;539.0
9.0;537.0
10.0;536.0
11.0;537.0
12.0;536.0
13.0;534.0
14.0;533.0
15.0;533.0
0.0;531.0
1.0;529.0
2.0;529.0
3.0;528.0
4.0;528.0
5.0;530.0
6.0;528.0
7.0;527.0
8.0;527.0
9.0;523.0
10.0;523.0
11.0;521.0
12.0;520.0
13.0;522.0
14.0;521.0
15.0;525.0
0.0;520.0
1.0;520.0
2.0;523.0
3.0;521.0
4.0;520.0
5.0;519.0
6.0;519.0
7.0;518.0
8.0;515.0
9.0;515.0
10.0;516.0
11.0;514.0
12.0;515.0
13.0;517.0
14.0;516.0
15.0;516.0
0.0;516.0
1.0;516.0
2.0;517.0
3.0;517.0
4.0;517.0
5.0;516.0
6.0;516.0
7.0;515.0
8.0;514.0
9.0;513.0
10.0;512.0
11.0;513.0
12.0;512.0
13.0;512.0
14.0;510.0
15.0;511.0
0.0;512.0
1.0;512.0
2.0;513.0
3.0;513.0
4.0;513.0
5.0;512.0
6.0;509.0
7.0;506.0
8.0;501.0
9.0;497.0
10.0;495.0
11.0;493.0
12.0;490.0
13.0;486.0
14.0;485.0
15.0;487.0
0.0;492.0
1.0;507.0
2.0;528.0
3.0;553.0
4.0;579.0
5.0;607.0
6.0;636.0
7.0;663.0
8.0;690.0
9.0;715.0
10.0;745.0
11.0;775.0
12.0;803.0
13.0;824.0
14.0;843.0
15.0;852.0
0.0;849.0
1.0;835.0
2.0;824.0
3.0;817.0
4.0;802.0
5.0;779.0
6.0;757.0
7.0;728.0
8.0;690.0
9.0;647.0
10.0;607.0
11.0;568.0
12.0;539.0
13.0;517.0
14.0;505.0
15.0;496.0
0.0;488.0
1.0;474.0
2.0;473.0
3.0;476.0
4.0;470.0
5.0;467.0
6.0;474.0
7.0;486.0
8.0;499.0
9.0;516.0
10.0;527.0
11.0;526.0
12.0;524.0
13.0;519.0
14.0;513.0
15.0;505.0
0.0;503.0
1.0;503.0
2.0;503.0
3.0;509.0
4.0;512.0
5.0;511.0
6.0;515.0
7.0;531.0
8.0;544.0
9.0;555.0
10.0;561.0
11.0;567.0
12.0;579.0
13.0;589.0
14.0;590.0
15.0;585.0
0.0;580.0
1.0;582.0
2.0;577.0
3.0;579.0
4.0;582.0
5.0;587.0
6.0;593.0
7.0;607.0
8.0;624.0
9.0;645.0
10.0;662.0
11.0;668.0
12.0;672.0
13.0;659.0
14.0;648.0
15.0;640.0
0.0;631.0
1.0;621.0
2.0;610.0
3.0;600.0
4.0;596.0
5.0;599.0
6.0;606.0
7.0;610.0
8.0;612.0
9.0;611.0
10.0;613.0
11.0;624.0
12.0;634.0
13.0;632.0
14.0;629.0
15.0;624.0
0.0;621.0
1.0;618.0
2.0;620.0
3.0;619.0
4.0;618.0
5.0;618.0
6.0;619.0
7.0;619.0
8.0;624.0
9.0;632.0
10.0;640.0
11.0;648.0
12.0;665.0
13.0;682.0
14.0;685.0
15.0;683.0
0.0;671.0
1.0;652.0
2.0;634.0
3.0;628.0
4.0;626.0
5.0;621.0
6.0;628.0
7.0;626.0
8.0;619.0
9.0;623.0
10.0;635.0
11.0;646.0
12.0;658.0
13.0;668.0
14.0;678.0
15.0;685.0
0.0;688.0
1.0;681.0
2.0;672.0
3.0;665.0
4.0;655.0
5.0;640.0
6.0;633.0
7.0;634.0
8.0;642.0
9.0;651.0
10.0;661.0
11.0;671.0
12.0;678.0
13.0;681.0
14.0;683.0
15.0;683.0
0.0;686.0
1.0;693.0
2.0;688.0
3.0;678.0
4.0;665.0
5.0;654.0
6.0;646.0
7.0;643.0
8.0;643.0
9.0;647.0
10.0;651.0
11.0;656.0
12.0;656.0
13.0;657.0
14.0;658.0
15.0;660.0
0.0;659.0
1.0;664.0
2.0;663.0
3.0;655.0
4.0;641.0
5.0;622.0
6.0;603.0
7.0;593.0
8.0;608.0
9.0;636.0
10.0;654.0
11.0;659.0
12.0;657.0
13.0;655.0
14.0;650.0
15.0;647.0
0.0;647.0
1.0;652.0
2.0;651.0
3.0;641.0
4.0;635.0
5.0;628.0
6.0;614.0
7.0;600.0
8.0;586.0
9.0;579.0
10.0;577.0
11.0;578.0
12.0;583.0
13.0;589.0
