0;0.1
1;0
2;0
3;0
4;0
5;0
6;0
7;0
8;0
9;0
10;0
11;0
12;9
13;17
14;9
15;4
0;3
1;0
2;0
3;0
4;12
5;25
6;39
7;53
8;67
9;83
10;95
11;102
12;108
13;113
14;117
15;117
0;118
1;117
2;117
3;120
4;130
5;139
6;149
7;153
8;156
9;167
10;180
11;191
12;194
13;187
14;177
15;177
0;181
1;177
2;178
3;179
4;180
5;192
6;204
7;211
8;210
9;213
10;222
11;232
12;243
13;253
14;257
15;250
0;244
1;241
2;235
3;235
4;243
5;248
6;251
7;259
8;270
9;286
10;299
11;303
12;309
13;319
14;330
15;332
0;327
1;325
2;322
3;316
4;314
5;315
6;319
7;326
8;337
9;344
10;350
11;358
12;366
13;373
14;378
15;378
0;375
1;375
2;376
3;388
4;399
5;408
6;428
7;442
8;451
9;455
10;446
11;443
12;439
13;429
14;421
15;416
0;409
1;405
2;416
3;434
4;442
5;437
6;426
7;414
8;408
9;413
10;421
11;432
12;442
13;449
14;447
15;447
0;445
1;437
2;430
3;422
4;408
5;397
6;394
7;394
8;394
9;396
10;404
11;410
12;417
13;417
14;408
15;404
0;410
1;415
2;413
3;412
4;412
5;409
6;408
7;407
8;404
9;399
10;392
11;391
12;395
13;396
14;404
15;412
0;422
1;431
2;436
3;436
4;436
5;434
6;429
7;425
8;421
9;420
10;421
11;425
12;431
13;435
14;440
15;444
0;449
1;455
2;460
3;462
4;464
5;463
6;458
7;450
8;451
9;454
10;464
11;484
12;495
13;504
14;507
15;509
0;506
1;495
2;489
3;485
4;474
5;467
6;462
7;458
8;449
9;444
10;441
11;438
12;440
13;440
14;445
15;452
0;452
1;449
2;447
3;457
4;464
5;458
6;451
7;450
8;449
9;445
10;438
11;435
12;436
13;435
14;435
15;437
0;438
1;440
2;440
3;439
4;435
5;425
6;417
7;406
8;391
9;380
10;381
11;388
12;395
13;400
14;404
15;406
0;410
1;417
2;418
3;419
4;422
5;426
6;423
7;423
8;424
9;424
10;428
11;431
12;432
13;434
14;437
15;439
0;440
1;448
2;455
3;457
4;458
5;459
6;455
7;456
8;455
9;451
10;441
11;436
12;431
13;429
14;436
15;444
0;451
1;456
2;466
3;473
4;478
5;479
6;474
7;468
8;455
9;456
10;454
11;449
12;451
13;451
14;447
15;443
0;439
1;437
2;436
3;435
4;426
5;417
6;416
7;419
8;418
9;419
10;418
11;419
12;424
13;436
14;452
15;460
0;464
1;482
2;507
3;537
4;562
5;584
6;599
7;605
8;611
9;623
10;647
11;677
12;704
13;728
14;742
15;749
0;751
1;746
2;727
3;697
4;668
5;633
6;591
7;549
8;504
9;456
10;424
11;407
12;391
13;378
14;372
15;366
0;360
1;359
2;361
3;361
4;368
5;377
6;390
7;403
8;415
9;421
10;422
11;426
12;429
13;428
14;427
15;427
0;428
1;429
2;430
3;434
4;442
5;456
6;473
7;484
8;494
9;503
10;508
11;513
12;519
13;521
14;519
15;521
0;524
1;526
2;527
3;531
4;535
5;541
6;563
7;587
8;603
9;608
10;603
11;593
12;587
13;582
14;577
15;574
0;577
1;578
2;574
3;575
4;583
5;593
6;604
7;612
8;614
9;616
10;622
11;622
12;611
13;603
14;600
15;597
0;601
1;603
2;598
3;594
4;600
5;609
6;617
7;629
8;645
9;655
10;648
11;637
12;626
13;615
14;607
15;599
0;591
1;589
2;588
3;587
4;595
5;602
6;611
7;624
8;636
9;640
10;640
11;643
12;644
13;640
14;642
15;645
0;644
1;643
2;643
3;645
4;649
5;657
6;664
7;665
8;671
9;678
10;684
11;689
12;694
13;697
14;697
15;699
0;695
1;690
2;686
3;684
4;681
5;681
6;683
7;686
8;688
9;694
10;700
11;704
12;710
13;711
14;711
15;708
0;701
1;694
2;689
3;685
4;678
5;674
6;672
7;673
8;679
9;689
10;700
11;702
12;700
13;700
14;707
15;711
0;716
1;708
2;697
3;678
4;662
5;660
6;662
7;655
8;639
9;621
10;613
11;613
12;543
13;303
14;84
15;0
0;0
1;0
2;0
3;0
4;0
5;0
6;0
7;0
8;0
9;0
10;0
11;0
12;0
13;0
14;0
15;0
0;0
1;47
2;83
3;112
4;132
5;152
6;169
7;178
8;184
9;190
10;200
11;214
12;235
13;257
14;283
15;320
0;362
1;406
2;447
3;483
4;515
5;543
6;563
7;574
8;579
9;588
10;595
11;593
12;594
13;602
14;613
15;630
0;653
1;677
2;699
3;719
4;735
5;747
6;763
7;770
8;765
9;757
10;748
11;736
12;723
13;716
14;716
15;718
0;724
1;736
2;750
3;771
4;809
5;826
6;820
7;813
8;800
9;773
10;749
11;723
12;698
13;677
14;666
15;659
0;657
1;660
2;667
3;678
4;692
5;696
6;692
7;696
8;687
9;669
10;649
11;627
12;598
13;567
14;551
15;547
0;547
1;550
2;558
3;565
4;578
5;593
6;610
7;623
8;632
9;633
10;627
11;614
12;598
13;582
14;569
15;566
0;568
1;573
2;588
3;606
4;621
5;638
6;653
7;666
8;680
9;697
10;709
11;715
12;720
13;724
14;727
15;733
0;743
1;751
2;758
3;770
4;777
5;773
6;767
7;762
8;752
9;742
10;731
11;719
12;711
13;705
14;699
15;694
0;692
1;691
2;692
3;696
4;697
5;700
6;703
7;709
8;709
9;700
10;695
11;695
12;707
13;737
14;761
15;783
0;810
1;832
2;853
3;875
4;898
5;920
6;939
7;963
8;984
9;997
10;1005
11;992
12;957
13;926
14;896
15;862
0;825
1;782
2;731
3;686
4;645
5;615
6;589
7;567
8;550
9;534
10;518
11;502
12;484
13;466
14;455
15;452
0;450
1;455
2;475
3;503
4;533
5;561
6;587
7;607
8;623
9;635
10;641
11;647
12;657
13;666
14;674
15;687
0;701
1;713
2;728
3;743
4;755
5;764
6;773
7;777
8;775
9;774
10;771
11;765
12;760
13;754
14;751
15;754
0;760
1;764
2;764
3;771
4;776
5;779
6;781
7;783
8;784
9;784
10;781
11;773
12;764
13;760
14;753
15;740
0;732
1;731
2;729
3;730
4;734
5;735
6;721
7;707
8;705
9;699
10;687
11;675
12;662
13;652
14;664
15;679
0;689
1;699
2;695
3;684
4;678
5;677
6;675
7;677
8;683
9;685
10;683
11;675
12;663
13;650
14;639
15;632
0;628
1;631
2;638
3;647
4;657
5;668
6;673
7;678
8;680
9;681
10;677
11;670
12;664
13;654
14;644
15;638
0;636
1;639
2;645
3;647
4;643
5;642
6;647
7;649
8;651
9;650
10;647
11;644
12;643
13;641
14;634
15;630
0;627
1;623
2;619
3;617
4;620
5;631
6;648
7;661
8;669
9;673
10;676
11;671
12;664
13;659
14;647
15;627
0;612
1;599
2;589
3;588
4;596
5;598
6;600
7;613
8;634
9;645
10;648
11;645
12;637
13;627
14;612
15;590
0;565
1;545
2;527
3;515
4;514
5;510
6;517
7;530
8;539
9;552
10;560
11;564
12;563
13;549
14;534
15;523
0;510
1;497
2;485
3;475
4;474
5;475
6;473
7;475
8;483
9;492
10;499
11;507
12;515
13;516
14;515
15;509
0;498
1;485
2;478
3;471
4;465
5;461
6;458
7;457
8;463
9;472
10;480
11;489
12;502
13;508
14;506
15;504
0;502
1;492
2;485
3;481
4;477
5;475
6;475
7;477
8;483
9;496
10;508
11;515
12;524
13;526
14;524
15;519
0;519
1;519
2;519
3;520
4;522
5;514
6;509
7;507
8;505
9;505
10;508
11;509
12;510
13;505
14;503
15;501
0;495
1;482
2;462
3;446
4;450
5;458
6;451
7;445
8;441
9;440
10;441
11;449
12;453
13;455
14;459
15;459
0;452
1;443
2;433
3;419
4;416
5;424
6;427
7;425
8;428
9;425
10;420
11;426
12;441
13;450
14;456
15;458
0;459
1;456
2;451
3;436
4;414
5;399
6;396
7;401
8;406
9;411
10;418
11;428
12;441
13;451
14;458
15;466
0;471
1;466
2;459
3;455
4;446
5;435
6;431
7;425
8;420
9;424
10;430
11;435
12;451
13;472
14;490
15;506
0;505
1;490
2;476
3;475
4;482
5;474
6;471
7;470
8;463
9;444
10;420
11;405
12;404
13;411
14;419
15;423
0;423
1;423
2;418
3;408
4;395
5;390
6;385
7;382
8;382
9;384
10;395
11;415
12;438
13;462
14;487
15;508
0;529
1;549
2;568
3;589
4;615
5;638
6;657
7;669
8;674
9;675
10;671
11;668
12;657
13;636
14;616
15;593
0;563
1;529
2;497
3;463
4;432
5;411
6;391
7;366
8;345
9;328
10;310
11;302
12;312
13;325
14;338
15;358
0;377
1;393
2;419
3;443
4;453
5;451
6;448
7;438
8;418
9;409
10;404
11;393
12;388
13;395
14;398
15;401
0;415
1;432
2;447
3;466
4;486
5;496
6;500
7;497
8;496
9;489
10;477
11;467
12;461
13;470
14;481
15;487
0;500
1;521
2;544
3;560
4;569
5;571
6;572
7;578
8;588
9;591
10;579
11;566
12;558
13;558
14;563
15;566
0;568
1;567
2;575
3;592
4;601
5;597
6;583
7;573
8;571
9;571
10;563
11;563
12;560
13;555
14;555
15;561
0;565
1;571
2;580
3;587
4;587
5;588
6;593
7;593
8;592
9;590
10;578
11;565
12;558
13;552
14;554
15;565
0;571
1;570
2;570
3;574
4;578
5;591
6;603
7;607
8;608
9;607
10;604
11;600
12;595
13;587
14;579
15;580
0;593
1;612
2;633
3;641
4;642
5;641
6;652
7;663
8;661
9;652
10;633
11;611
12;603
13;617
14;652
15;679
0;701
1;699
2;680
3;667
4;657
5;651
6;649
7;650
8;648
9;640
10;637
11;632
12;620
13;612
14;604
15;595
0;593
1;600
2;604
3;607
4;619
5;628
6;632
7;634
8;633
9;628
10;618
11;607
12;592
13;571
14;553
15;534
0;521
1;522
2;528
3;530
4;535
5;540
6;546
7;551
8;556
9;555
10;546
11;540
12;529
13;516
14;502
15;493
0;491
1;490
2;492
3;492
4;492
5;493
6;502
7;509
8;516
9;519
10;521
11;519
12;513
13;501
14;487
15;480
0;478
1;478
2;475
3;468
4;462
5;463
6;477
7;489
8;485
9;485
10;496
11;505
12;508
13;518
14;530
15;533
0;537
1;546
2;543
3;528
4;514
5;506
6;506
7;507
8;509
9;511
10;522
11;528
12;527
13;531
14;531
15;523
0;517
1;512
2;500
3;488
4;484
5;482
6;484
7;489
8;499
9;513
10;524
11;532
12;532
13;532
14;532
15;526
0;519
1;514
2;514
3;515
4;517
5;525
6;532
7;536
8;543
9;547
10;552
11;558
12;564
13;569
14;575
15;582
0;588
1;593
2;600
3;608
4;618
5;634
6;643
7;651
8;658
9;664
10;665
11;665
12;665
13;665
14;662
15;663
0;662
1;658
2;656
3;663
4;671
5;681
6;688
7;692
8;691
9;693
10;705
11;740
12;769
13;769
14;742
15;725
0;724
1;723
2;716
3;705
4;696
5;687
6;680
7;681
8;686
9;685
10;690
11;692
12;684
13;676
14;668
15;662
0;659
1;659
2;666
3;672
4;672
5;657
6;636
7;620
8;609
9;594
10;583
11;574
12;562
13;551
14;537
15;526
0;519
1;518
2;515
3;513
4;512
5;514
6;515
7;523
8;531
9;536
10;545
11;563
12;583
13;602
14;618
15;634
0;651
1;667
2;684
3;700
4;720
5;751
6;780
7;797
8;802
9;797
10;775
11;745
12;714
13;683
14;649
15;611
0;565
1;518
2;476
3;440
4;410
5;391
6;381
7;374
8;365
9;356
10;347
11;339
12;342
13;352
14;365
15;396
0;414
1;408
2;402
3;402
4;408
5;410
6;409
7;408
8;400
9;384
10;370
11;368
12;379
13;391
14;403
15;419
0;435
1;454
2;469
3;482
4;486
5;487
6;491
7;491
8;492
9;490
10;487
11;488
12;495
13;502
14;512
15;521
0;535
1;541
2;541
3;542
4;547
5;557
6;569
7;575
8;575
9;567
10;561
11;562
12;559
13;557
14;558
15;556
0;551
1;550
2;555
3;553
4;548
5;550
6;554
7;560
8;569
9;577
10;582
11;586
12;591
13;595
14;597
15;598
0;594
1;586
2;579
3;574
4;585
5;611
6;636
7;654
8;671
9;670
10;660
11;647
12;637
13;629
14;622
15;613
0;609
1;611
2;611
3;608
4;607
5;608
6;606
7;606
8;607
9;611
10;608
11;604
12;606
13;620
14;637
15;658
0;675
1;669
2;656
3;643
4;637
5;636
6;635
7;633
8;628
9;628
10;629
11;625
12;624
13;626
14;626
15;622
0;618
1;620
2;619
3;615
4;611
5;608
6;604
7;604
8;608
9;608
10;607
11;611
12;619
13;620
14;612
15;599
0;585
1;578
2;577
3;573
4;570
5;565
6;560
7;558
8;556
9;556
10;553
11;551
12;548
13;544
14;547
15;552
0;550
1;545
2;544
3;541
4;548
5;554
6;556
7;551
8;542
9;534
10;527
11;524
12;527
13;532
14;532
15;528
0;523
1;520
2;519
3;513
4;499
5;487
6;483
7;482
8;478
9;474
10;475
11;479
12;481
13;476
14;467
15;461
0;472
1;492
2;513
3;545
4;544
5;517
6;497
7;483
8;473
9;470
10;474
11;475
12;476
13;471
14;461
15;448
0;437
1;433
2;428
3;421
4;421
5;437
6;459
7;489
8;505
9;496
10;476
11;452
12;437
13;423
14;408
15;393
0;386
1;384
2;382
3;375
4;373
5;377
6;379
7;384
8;393
9;397
10;399
11;402
12;404
13;404
14;408
15;410
0;412
1;413
2;415
3;415
4;415
5;417
6;417
7;415
8;415
9;420
10;425
11;429
12;437
13;446
14;456
15;466
0;467
1;464
2;460
3;460
4;461
5;462
6;463
7;463
8;466
9;470
10;471
11;475
12;481
13;478
14;469
15;460
0;467
1;486
2;502
3;511
4;519
5;527
6;531
7;526
8;512
9;501
10;497
11;495
12;491
13;491
14;498
15;501
0;502
1;505
2;512
3;521
4;532
5;521
6;502
7;490
8;484
9;483
10;483
11;483
12;484
13;486
14;487
15;484
0;486
1;485
2;478
3;472
4;470
5;470
6;465
7;459
8;453
9;444
10;436
11;431
12;425
13;418
14;409
15;403
0;395
1;386
2;380
3;380
4;382
5;387
6;391
7;392
8;397
9;409
10;429
11;454
12;480
13;503
14;525
15;544
0;558
1;568
2;585
3;609
4;643
5;676
6;708
7;732
8;739
9;743
10;746
11;730
12;698
13;658
14;617
15;569
0;512
1;456
2;409
3;376
4;350
5;332
6;320
7;315
8;318
9;327
10;337
11;345
12;357
13;360
14;358
15;351
0;347
1;344
2;343
3;347
4;356
5;364
6;373
7;377
8;377
9;383
10;392
11;402
12;414
13;434
14;448
15;454
0;459
1;463
2;467
3;469
4;474
5;477
6;475
7;478
8;485
9;489
10;492
11;499
12;510
13;520
14;532
15;542
0;547
1;552
2;554
3;549
4;545
5;543
6;545
7;545
8;547
9;546
10;550
11;561
12;578
13;591
14;620
15;643
0;646
1;625
2;602
3;580
4;563
5;550
6;540
7;542
8;548
9;555
10;560
11;561
12;563
13;566
14;567
15;572
0;576
1;579
2;580
3;580
4;574
5;570
6;566
7;564
8;565
9;568
10;569
11;570
12;575
13;580
14;579
15;580
0;585
1;598
2;607
3;610
4;608
5;599
6;593
7;587
8;582
9;583
10;594
11;608
12;609
13;614
14;624
15;631
0;632
1;635
2;635
3;633
4;632
5;630
6;622
7;613
8;604
9;598
10;597
11;602
12;608
13;617
14;624
15;629
0;632
1;637
2;640
3;642
4;653
5;662
6;655
7;642
8;627
9;606
10;594
11;592
12;595
13;599
14;605
15;614
0;624
1;631
2;630
3;622
4;612
5;607
6;604
7;600
8;593
9;590
10;588
11;591
12;605
13;623
14;631
15;638
0;645
1;636
2;611
3;584
4;561
5;542
6;531
7;521
8;511
9;508
10;508
11;510
12;513
13;514
14;513
15;518
0;524
1;533
2;550
3;578
4;588
5;572
6;551
7;534
8;523
9;518
10;515
11;511
12;503
13;499
14;498
15;498
0;504
1;515
2;523
3;529
4;536
5;539
6;536
7;533
8;528
9;521
10;518
11;517
12;513
13;514
14;520
15;530
0;540
1;552
2;560
3;567
4;572
5;575
6;576
7;575
8;572
9;564
10;551
11;539
12;529
13;526
14;526
15;526
0;520
1;519
2;524
3;530
4;531
5;532
6;535
7;532
8;525
9;519
10;516
11;513
12;507
13;507
14;512
15;526
0;540
1;549
2;553
3;553
4;551
5;546
6;540
7;523
8;505
9;483
10;468
11;457
12;449
13;439
14;428
15;423
0;425
1;429
2;445
3;468
4;480
5;477
6;474
7;467
8;464
9;464
10;461
11;453
12;445
13;436
14;423
15;414
0;412
1;413
2;411
3;414
4;423
5;434
6;443
7;449
8;451
9;449
10;451
11;451
12;445
13;444
14;446
15;445
0;445
1;448
2;448
3;447
4;451
5;458
6;461
7;464
8;464
9;465
10;463
11;460
12;455
13;448
14;445
15;445
0;446
1;448
2;448
3;440
4;424
5;410
6;410
7;444
8;495
9;520
10;518
11;496
12;461
13;428
14;400
15;379
0;365
1;355
2;348
3;345
4;351
5;371
6;391
7;405
8;415
9;428
10;445
11;472
12;501
13;521
14;536
15;551
0;565
1;583
2;603
3;618
4;636
5;662
6;686
7;701
8;706
9;704
10;689
11;663
12;632
13;597
14;555
15;507
0;462
1;422
2;390
3;368
4;355
5;345
6;344
7;350
8;360
9;367
10;374
11;381
12;381
13;376
14;369
15;360
0;355
1;356
2;359
3;363
4;364
5;365
6;370
7;381
8;393
9;402
10;410
11;419
12;422
13;425
14;448
15;499
0;534
1;536
2;523
3;506
4;489
5;477
6;469
7;472
8;492
9;509
10;516
11;524
12;529
13;531
14;530
15;530
0;526
1;522
2;520
3;514
4;510
5;509
6;505
7;500
8;500
9;510
10;528
11;547
12;572
13;587
14;586
15;580
0;575
1;563
2;553
3;546
4;537
5;533
6;534
7;533
8;533
9;540
10;552
11;560
12;564
13;568
14;566
15;563
0;561
1;563
2;560
3;555
4;547
5;542
6;544
7;548
8;551
9;560
10;570
11;575
12;579
13;578
14;578
15;574
0;575
1;584
2;579
3;568
4;558
5;559
6;571
7;587
8;592
9;591
10;591
11;597
12;605
13;613
14;619
15;622
0;630
1;634
2;634
3;629
4;620
5;610
6;596
7;587
8;589
9;593
10;595
11;606
12;617
13;620
14;624
15;632
0;630
1;623
2;616
3;606
4;598
5;596
6;594
7;591
8;589
9;591
10;595
11;604
12;613
13;617
14;620
15;624
0;627
1;625
2;622
3;624
4;620
5;609
6;598
7;583
8;574
9;572
10;565
11;557
12;555
13;556
14;556
15;564
0;573
1;575
2;574
3;575
4;569
5;560
6;550
7;545
8;542
9;547
10;556
11;560
12;563
13;576
14;582
15;579
0;569
1;558
2;545
3;538
4;529
5;517
6;506
7;502
8;500
9;500
10;502
11;501
12;499
13;500
14;505
15;510
0;513
1;519
2;524
3;525
4;527
5;529
6;527
7;520
8;515
9;512
10;514
11;519
12;524
13;522
14;522
15;526
0;529
1;532
2;537
3;540
4;539
5;542
6;544
7;545
8;540
9;531
10;518
11;515
12;534
13;570
14;607
15;615
0;603
1;586
2;571
3;555
4;535
5;523
6;518
7;510
8;499
9;488
10;479
11;478
12;480
13;481
14;483
15;494
0;504
1;498
2;497
3;507
4;509
5;502
6;499
7;499
8;503
9;519
10;548
11;550
12;515
13;472
14;435
15;413
0;405
1;403
2;408
3;415
4;415
5;414
6;413
7;422
8;431
9;435
10;440
11;444
12;444
13;441
14;430
15;414
0;404
1;405
2;402
3;396
4;395
5;403
6;412
7;420
8;425
9;422
10;421
11;423
12;421
13;424
14;426
15;423
0;416
1;411
2;414
3;416
4;419
5;419
6;419
7;419
8;422
9;426
10;426
11;423
12;420
13;415
14;411
15;411
0;409
1;407
2;411
3;416
4;417
5;419
6;416
7;409
8;398
9;385
10;371
11;363
12;359
13;356
14;352
15;355
0;361
1;360
2;363
3;374
4;366
5;359
6;365
7;368
8;378
9;379
10;380
11;393
12;410
13;432
14;453
15;471
0;491
1;511
2;527
3;544
4;559
5;572
6;595
7;625
8;640
9;645
10;638
11;622
12;610
13;597
14;597
15;600
0;576
1;543
2;499
3;463
4;433
5;390
6;348
7;327
8;318
9;311
10;306
11;303
12;299
13;296
14;299
15;301
0;310
1;323
2;335
3;343
4;349
5;357
6;361
7;368
8;374
9;380
10;386
11;394
12;401
13;407
14;412
15;417
0;418
1;426
2;433
3;436
4;440
5;450
6;465
7;475
8;483
9;490
10;497
11;504
12;509
13;510
14;509
15;512
0;516
1;515
2;523
3;532
4;533
5;533
6;537
7;539
8;543
9;548
10;551
11;546
12;540
13;535
14;531
15;528
0;526
1;525
2;527
3;531
4;532
5;532
6;532
7;536
8;540
9;546
10;558
11;574
12;578
13;574
14;575
15;574
0;567
1;557
2;554
3;559
4;566
5;566
6;564
7;571
8;575
9;575
10;578
11;582
12;585
13;588
14;590
15;591
0;592
1;597
2;599
3;603
4;607
5;611
6;613
7;615
8;620
9;624
10;625
11;624
12;629
13;632
14;637
15;642
0;644
1;644
2;643
3;644
4;646
5;648
6;649
7;649
8;649
9;649
10;649
11;653
12;659
13;659
14;659
15;662
0;664
1;659
2;654
3;648
4;641
5;639
6;639
7;636
8;631
9;630
10;635
11;638
12;636
13;630
14;621
15;619
0;625
1;636
2;641
3;655
4;668
5;680
6;690
7;698
8;704
9;721
10;751
11;785
12;790
13;783
14;776
15;756
0;729
1;702
2;681
3;672
4;666
5;659
6;652
7;649
8;647
9;652
10;656
11;657
12;658
13;655
14;654
15;650
0;645
1;640
2;631
3;619
4;609
5;605
6;603
7;599
8;596
9;593
10;593
11;596
12;593
13;590
14;591
15;588
0;578
1;574
2;569
3;560
4;552
5;547
6;545
7;541
8;542
9;546
10;547
11;549
12;551
13;553
14;559
15;569
0;574
1;572
2;571
3;568
4;564
5;563
6;561
7;557
8;557
9;555
10;551
11;542
12;549
13;583
14;618
15;629
0;627
1;608
2;582
3;560
4;539
5;525
6;522
7;519
8;512
9;511
10;511
11;508
12;511
13;513
14;516
15;524
0;540
1;545
2;540
3;536
4;536
5;533
6;517
7;490
8;462
9;443
10;435
11;435
12;438
13;441
14;446
15;449
0;456
1;458
2;458
3;457
4;455
5;452
6;444
7;433
8;423
9;413
10;412
11;415
12;415
13;416
14;421
15;426
0;430
1;433
2;434
3;434
4;436
5;438
6;437
7;430
8;426
9;422
10;416
11;419
12;423
13;425
14;430
15;438
0;446
1;451
2;455
3;458
4;460
5;464
6;463
7;455
8;446
9;436
10;423
11;420
12;423
13;429
14;432
15;440
0;446
1;447
2;451
3;454
4;452
5;446
6;449
7;455
8;459
9;457
10;448
11;450
12;459
13;459
14;445
15;423
0;402
1;371
2;344
3;333
4;323
5;310
6;304
7;305
8;308
9;312
10;319
11;333
12;348
13;368
14;388
15;404
0;420
1;447
2;470
3;490
4;513
5;540
6;566
7;595
8;625
9;645
10;659
11;670
12;670
13;657
14;644
15;625
0;596
1;565
2;531
3;493
4;455
5;420
6;394
7;377
8;367
9;355
10;347
11;348
12;351
13;352
14;351
15;349
0;341
1;331
2;334
3;340
4;344
5;351
6;353
7;353
8;356
9;357
10;352
11;351
12;353
13;353
14;353
15;354
0;354
1;355
2;361
3;371
4;379
5;386
6;401
7;416
8;429
9;435
10;441
11;445
12;447
13;447
14;442
15;439
0;442
1;439
2;433
3;437
4;448
5;467
6;493
7;516
8;537
9;532
10;519
11;508
12;505
13;512
14;517
15;515
0;512
1;511
2;508
3;502
4;498
5;500
6;506
7;510
8;511
9;510
10;516
11;518
12;519
13;517
14;516
15;518
0;518
1;517
2;512
3;505
4;503
5;508
6;514
7;519
8;521
9;523
10;526
11;532
12;537
13;540
14;543
15;543
0;542
1;541
2;538
3;529
4;522
5;525
6;529
7;533
8;538
9;541
10;546
11;552
12;556
13;557
14;556
15;557
0;565
1;571
2;574
3;572
4;569
5;568
6;570
7;569
8;572
9;583
10;590
11;595
12;598
13;597
14;593
15;594
0;598
1;592
2;583
3;576
4;568
5;560
6;556
7;553
8;560
9;580
10;605
11;607
12;597
13;588
14;585
15;583
0;582
1;577
2;571
3;565
4;561
5;553
6;550
7;550
8;547
9;548
10;550
11;552
12;561
13;568
14;575
15;578
0;575
1;574
2;568
3;563
4;560
5;558
6;552
7;547
8;545
9;543
10;544
11;548
12;550
13;549
14;548
15;547
0;546
1;548
2;552
3;551
4;549
5;546
6;539
7;537
8;542
9;543
10;541
11;537
12;534
13;531
14;533
15;538
0;545
1;552
2;557
3;557
4;558
5;559
6;560
7;557
8;553
9;553
10;550
11;548
12;554
13;565
14;570
15;570
0;566
1;565
2;572
3;581
4;578
5;575
6;568
7;558
8;550
9;554
10;567
11;577
12;603
13;626
14;636
15;633
0;623
1;610
2;593
3;578
4;569
5;566
6;564
7;565
8;558
9;554
10;556
11;556
12;552
13;551
14;548
15;542
0;545
1;558
2;574
3;573
4;568
5;561
6;561
7;560
8;550
9;531
10;511
11;492
12;477
13;467
14;463
15;462
0;458
1;452
2;448
3;445
4;441
5;440
6;444
7;448
8;453
9;455
10;452
11;453
12;455
13;455
14;458
15;461
0;458
1;455
2;460
3;461
4;457
5;453
6;449
7;444
8;442
9;444
10;446
11;447
12;450
13;456
14;460
15;462
0;465
1;467
2;471
3;479
4;482
5;483
6;491
7;501
8;509
9;505
10;492
11;495
12;512
13;524
14;524
15;510
0;496
1;481
2;465
3;458
4;455
5;471
6;497
7;502
8;502
9;508
10;520
11;520
12;510
13;498
14;487
15;475
0;463
1;455
2;443
3;430
4;427
5;422
6;412
7;408
8;403
9;401
10;407
11;417
12;421
13;429
14;448
15;469
0;496
1;523
2;548
3;572
4;597
5;618
6;629
7;646
8;676
9;707
10;740
11;776
12;803
13;818
14;828
15;830
0;821
1;807
2;783
3;752
4;716
5;674
6;630
7;585
8;545
9;518
10;497
11;486
12;484
13;482
14;477
15;478
0;478
1;481
2;486
3;493
4;497
5;500
6;507
7;510
8;509
9;507
10;507
11;510
12;519
13;529
14;528
15;530
0;541
1;548
2;550
3;549
4;541
5;533
6;532
7;532
8;543
9;560
10;568
11;582
12;593
13;594
14;590
15;584
0;588
1;593
2;591
3;599
4;608
5;608
6;610
7;618
8;620
9;609
10;601
11;598
12;606
13;613
14;613
15;608
0;601
1;595
2;588
3;579
4;565
5;558
6;556
7;553
8;547
9;539
10;532
11;529
12;526
13;524
14;521
15;513
0;497
1;483
2;478
3;472
4;466
5;458
6;449
7;444
8;440
9;438
10;433
11;424
12;417
13;412
14;405
15;402
0;401
1;395
2;391
3;388
4;387
5;390
6;397
7;399
8;400
9;402
10;403
11;398
12;399
13;405
14;413
15;419
0;422
1;425
2;426
3;431
4;436
5;437
6;433
7;435
8;435
9;437
10;442
11;446
12;453
13;464
14;471
15;475
0;478
1;481
2;485
3;487
4;490
5;498
6;512
7;521
8;519
9;524
10;532
11;536
12;538
13;540
14;540
15;546
0;558
1;561
2;556
3;552
4;556
5;558
6;552
7;544
8;538
9;534
10;529
11;523
12;519
13;510
14;503
15;493
0;487
1;487
2;487
3;492
4;493
5;496
6;496
7;488
8;484
9;476
10;468
11;460
12;454
13;449
14;442
15;433
0;432
1;436
2;444
3;448
4;446
5;444
6;443
7;442
8;444
9;445
10;443
11;443
12;444
13;445
14;445
15;448
0;451
1;454
2;455
3;461
4;465
5;463
6;464
7;469
8;470
9;472
10;474
11;473
12;474
13;474
14;469
15;463
0;462
1;466
2;464
3;468
4;478
5;483
6;492
7;505
8;516
9;523
10;527
11;529
12;529
13;534
14;542
15;547
0;550
1;551
2;551
3;551
4;549
5;544
6;535
7;528
8;530
9;537
10;559
11;576
12;582
13;584
14;577
15;553
0;525
1;505
2;492
3;478
4;475
5;478
6;473
7;466
8;467
9;475
10;478
11;480
12;484
13;487
14;484
15;482
0;473
1;460
2;447
3;437
4;435
5;440
6;448
7;455
8;458
9;459
10;463
11;467
12;472
13;479
14;474
15;467
0;466
1;461
2;459
3;460
4;464
5;464
6;458
7;455
8;446
9;442
10;451
11;459
12;468
13;471
14;468
15;468
0;468
1;466
2;460
3;456
4;450
5;443
6;442
7;443
8;447
9;456
10;470
11;485
12;508
13;525
14;530
15;513
0;498
1;493
2;487
3;479
4;479
5;478
6;478
7;479
8;479
9;476
10;474
11;473
12;467
13;461
14;472
15;501
0;530
1;551
2;555
3;537
4;514
5;485
6;449
7;423
8;411
9;403
10;397
11;399
12;408
13;412
14;417
15;424
0;427
1;434
2;441
3;442
4;441
5;451
6;472
7;493
8;524
9;560
10;592
11;615
12;636
13;663
14;691
15;722
0;748
1;755
2;753
3;748
4;737
5;721
6;695
7;666
8;630
9;592
10;548
11;505
12;472
13;443
14;417
15;395
0;383
1;371
2;366
3;363
4;363
5;362
6;352
7;342
8;333
9;330
10;335
11;344
12;355
13;370
14;383
15;385
0;382
1;376
2;367
3;359
4;360
5;373
6;387
7;402
8;422
9;450
10;464
11;463
12;462
13;470
14;476
15;479
0;486
1;496
2;502
3;499
4;496
5;494
6;489
7;490
8;495
9;498
10;500
11;511
12;525
13;542
14;561
15;584
0;600
1;605
2;606
3;598
4;580
5;558
6;543
7;537
8;535
9;531
10;526
11;525
12;528
13;533
14;536
15;543
0;551
1;556
2;560
3;557
4;546
5;532
6;520
7;509
8;498
9;492
10;486
11;482
12;478
13;473
14;465
15;462
0;464
1;468
2;470
3;473
4;476
5;476
6;474
7;470
8;463
9;463
10;465
11;462
12;460
13;466
14;475
15;480
0;489
1;498
2;505
3;514
4;527
5;538
6;542
7;545
8;550
9;554
10;558
11;564
12;565
13;563
14;570
15;583
0;611
1;645
2;678
3;699
4;705
5;706
6;703
7;697
8;687
9;676
10;665
11;661
12;658
13;655
14;657
15;660
0;664
1;668
2;673
3;676
4;679
5;685
6;688
7;685
8;684
9;679
10;676
11;681
12;683
13;683
14;681
15;676
0;668
1;667
2;677
3;686
4;686
5;687
6;684
7;681
8;684
9;693
10;703
11;704
12;705
13;698
14;690
15;694
0;713
1;736
2;772
3;796
4;791
5;774
6;751
7;729
8;716
9;714
10;713
11;710
12;704
13;701
14;698
15;697
0;700
1;702
2;702
3;702
4;707
5;707
6;702
7;692
8;684
9;672
10;662
11;647
12;628
13;615
14;604
15;593
0;586
1;581
2;577
3;568
4;564
5;563
6;564
7;569
8;578
9;579
10;574
11;568
12;559
13;552
14;552
15;565
0;586
1;594
2;606
3;613
4;609
5;601
6;596
7;595
8;588
9;573
10;553
11;536
12;529
13;520
14;509
15;507
0;513
1;517
2;523
3;541
4;541
5;534
6;526
7;505
8;482
9;465
10;451
11;437
12;423
13;409
14;396
15;385
0;377
1;368
2;361
3;356
4;350
5;344
6;342
7;340
8;343
9;357
10;358
11;351
12;348
13;346
14;340
15;328
0;321
1;315
2;312
3;315
4;317
5;318
6;319
7;326
8;334
9;342
10;348
11;350
12;347
13;346
14;346
15;343
0;340
1;341
2;341
3;337
4;339
5;344
6;344
7;345
8;348
9;358
10;366
11;371
12;374
13;374
14;380
15;386
0;386
1;383
2;387
3;388
4;387
5;382
6;380
7;372
8;374
9;378
10;377
11;383
12;388
13;393
14;399
15;402
0;397
1;390
2;387
3;382
4;376
5;377
6;385
7;396
8;396
9;387
10;378
11;371
12;374
13;378
14;383
15;390
0;387
1;384
2;389
3;397
4;400
5;396
6;396
7;397
8;391
9;391
10;401
11;419
12;447
13;473
14;492
15;516
0;545
1;567
2;585
3;612
4;644
5;677
6;715
7;753
8;782
9;796
10;802
11;792
12;774
13;748
14;728
15;705
0;673
1;636
2;596
3;557
4;523
5;498
6;481
7;469
8;462
9;460
10;463
11;472
12;480
13;480
14;479
15;477
0;482
1;497
2;513
3;520
4;525
5;526
6;523
7;521
8;524
9;525
10;530
11;543
12;557
13;568
14;576
15;578
0;574
1;567
2;567
3;572
4;582
5;591
6;597
7;600
8;593
9;586
10;585
11;590
12;619
13;670
14;712
15;718
0;688
1;659
2;653
3;657
4;653
5;648
6;652
7;651
8;645
9;646
10;652
11;657
12;660
13;662
14;659
15;655
0;652
1;649
2;647
3;644
4;636
5;627
6;619
7;615
8;613
9;613
10;620
11;622
12;618
13;614
14;605
15;602
0;606
1;607
2;599
3;593
4;592
5;588
6;585
7;585
8;584
9;586
10;590
11;594
12;594
13;590
14;588
15;590
0;593
1;595
2;594
3;586
4;583
5;583
6;577
7;575
8;576
9;575
10;574
11;579
12;588
13;599
14;607
15;609
0;611
1;618
2;623
3;625
4;623
5;626
6;627
7;623
8;609
9;593
10;590
11;593
12;604
13;601
14;590
15;578
0;574
1;566
2;561
3;556
4;553
5;553
6;558
7;554
8;547
9;531
10;515
11;508
12;509
13;518
14;514
15;503
0;500
1;499
2;497
3;494
4;487
5;473
6;466
7;464
8;453
9;435
10;419
11;415
12;417
13;420
14;418
15;410
0;406
1;417
2;432
3;443
4;446
5;441
6;430
7;418
8;410
9;408
10;399
11;397
12;405
13;415
14;423
15;423
0;423
1;428
2;430
3;432
4;440
5;444
6;447
7;444
8;444
9;439
10;430
11;428
12;428
13;432
14;438
15;446
0;454
1;464
2;473
3;478
4;478
5;476
6;478
7;480
8;482
9;477
10;470
11;467
12;465
13;468
14;474
15;479
0;491
1;497
2;504
3;515
4;535
5;552
6;568
7;572
8;569
9;564
10;559
11;550
12;551
13;552
14;550
15;540
0;536
1;532
2;536
3;544
4;550
5;550
6;550
7;549
8;541
9;531
10;519
11;511
12;509
13;508
14;497
15;472
0;451
1;443
2;434
3;423
4;419
5;408
6;395
7;381
8;365
9;347
10;333
11;327
12;320
13;316
14;313
15;311
0;307
1;304
2;304
3;312
4;331
5;346
6;355
7;368
8;377
9;381
10;386
11;391
12;395
13;396
14;396
15;399
0;400
1;404
2;410
3;413
4;412
5;414
6;416
7;417
8;420
9;425
10;429
11;430
12;429
13;424
14;423
15;423
0;415
1;412
2;423
3;438
4;444
5;450
6;468
7;489
8;505
9;516
10;519
11;523
12;529
13;538
14;532
15;521
0;515
1;511
2;506
3;506
4;501
5;504
6;512
7;517
8;525
9;529
10;530
11;528
12;525
13;520
14;512
15;506
0;500
1;489
2;477
3;466
4;462
5;460
6;455
7;453
8;449
9;447
10;443
11;441
12;440
13;440
14;443
15;444
0;449
1;459
2;472
3;492
4;519
5;545
6;570
7;588
8;608
9;632
10;652
11;672
12;698
13;728
14;751
15;757
0;760
1;763
2;764
3;751
4;736
5;720
6;698
7;662
8;616
9;568
10;512
11;465
12;432
13;412
14;409
15;406
0;397
1;390
2;381
3;381
4;393
5;404
6;413
7;415
8;415
9;419
10;423
11;424
12;413
13;399
14;388
15;389
0;414
1;435
2;443
3;447
4;446
5;444
6;450
7;459
8;465
9;472
10;480
11;485
12;488
13;488
14;488
15;491
0;497
1;506
2;516
3;525
4;535
5;542
6;552
7;564
8;575
9;578
10;583
11;587
12;585
13;579
14;571
15;557
0;543
1;534
2;530
3;532
4;539
5;541
6;543
7;550
8;555
9;557
10;563
11;564
12;561
13;554
14;544
15;535
0;526
1;521
2;515
3;508
4;508
5;510
6;512
7;520
8;536
9;552
10;571
11;583
12;592
13;588
14;583
15;564
0;536
1;515
2;502
3;495
4;489
5;487
6;479
7;484
8;501
9;524
10;548
11;560
12;567
13;564
14;558
15;548
0;535
1;513
2;502
3;499
4;496
5;494
6;499
7;511
8;524
9;533
10;533
11;531
12;528
13;523
14;516
15;508
0;492
1;470
2;453
3;445
4;442
5;439
6;445
7;457
8;472
9;491
10;506
11;522
12;537
13;549
14;557
15;559
0;551
1;535
2;514
3;494
4;478
5;463
6;452
7;449
8;456
9;469
10;483
11;495
12;512
13;526
14;530
15;525
0;522
1;513
2;499
3;486
4;473
5;465
6;459
7;458
8;463
9;469
10;487
11;499
12;511
13;533
14;548
15;545
0;531
1;515
2;502
3;494
4;482
5;478
6;481
7;485
8;486
9;487
10;492
11;496
12;503
13;513
14;524
15;532
0;539
1;543
2;538
3;520
4;506
5;498
6;492
7;499
8;509
9;530
10;548
11;557
12;560
13;560
14;557
15;551
0;542
1;537
2;530
3;516
4;502
5;491
6;483
7;474
8;476
9;486
10;494
11;498
12;501
13;505
14;514
15;526
0;536
1;540
2;537
3;539
4;537
5;531
6;519
7;507
8;503
9;505
10;512
11;518
12;522
13;527
14;531
15;534
0;539
1;540
2;536
3;526
4;512
5;506
6;507
7;537
8;584
9;595
10;594
11;585
12;568
13;551
14;539
15;532
0;524
1;519
2;513
3;504
4;495
5;486
6;478
7;471
8;466
9;461
10;454
11;453
12;457
13;455
14;456
15;471
0;496
1;516
2;523
3;520
4;519
5;520
6;509
7;496
8;489
9;484
10;482
11;483
12;484
13;486
14;487
15;490
0;496
1;498
2;497
3;499
4;501
5;499
6;499
7;501
8;503
9;500
10;493
11;486
12;480
13;477
14;476
15;478
0;494
1;512
2;523
3;528
4;531
5;531
6;532
7;534
8;534
9;532
10;526
11;515
12;504
13;499
14;503
15;509
0;524
1;547
2;569
3;576
4;572
5;563
6;550
7;538
8;522
9;506
10;489
11;473
12;460
13;452
14;450
15;446
0;430
1;414
2;400
3;389
4;383
5;383
6;387
7;397
8;406
9;415
10;416
11;412
12;414
13;428
14;451
15;484
0;535
1;575
2;608
3;630
4;656
5;687
6;716
7;744
8;772
9;792
10;802
11;792
12;772
13;746
14;720
15;696
0;664
1;632
2;600
3;564
4;527
5;494
6;469
7;455
8;439
9;428
10;415
11;399
12;385
13;378
14;370
15;362
0;362
1;375
2;391
3;404
4;412
5;419
6;424
7;427
8;428
9;428
10;425
11;422
12;417
13;418
14;421
15;417
0;416
1;429
2;448
3;462
4;475
5;486
6;505
7;526
8;537
9;543
10;539
11;527
12;525
13;521
14;517
15;514
0;510
1;508
2;511
3;519
4;532
5;551
6;570
7;584
8;601
9;611
10;604
11;600
12;583
13;556
14;533
15;522
0;522
1;524
2;525
3;537
4;553
5;566
6;577
7;590
8;600
9;606
10;603
11;595
12;586
13;575
14;563
15;549
0;536
1;529
2;524
3;524
4;529
5;536
6;549
7;563
8;575
9;588
10;597
11;603
12;601
13;595
14;589
15;580
0;568
1;556
2;549
3;548
4;549
5;557
6;568
7;579
8;591
9;595
10;596
11;596
12;593
13;589
14;586
15;581
0;576
1;569
2;563
3;566
4;568
5;570
6;574
7;582
8;586
9;594
10;606
11;623
12;632
13;625
14;618
15;623
0;622
1;608
2;591
3;579
4;578
5;583
6;591
7;596
8;600
9;606
10;621
11;633
12;639
13;635
14;630
15;620
0;611
1;604
2;595
3;584
4;579
5;584
6;595
7;608
8;617
9;619
10;622
11;620
12;613
13;602
14;592
15;582
0;569
1;551
2;534
3;523
4;517
5;519
6;530
7;542
8;550
9;555
10;560
11;563
12;563
13;563
14;562
15;555
0;548
1;542
2;539
3;536
4;531
5;530
6;534
7;540
8;546
9;549
10;552
11;556
12;559
13;560
14;558
15;556
0;554
1;548
2;543
3;538
4;536
5;532
6;531
7;529
8;531
9;541
10;547
11;551
12;560
13;567
14;590
15;598
0;587
1;573
2;569
3;563
4;558
5;550
6;547
7;547
8;550
9;549
10;546
11;549
12;548
13;556
14;564
15;568
0;569
1;564
2;553
3;541
4;531
5;528
6;527
7;520
8;521
9;530
10;539
11;543
12;545
13;549
14;544
15;534
0;529
1;528
2;525
3;511
4;497
5;485
6;479
7;476
8;480
9;489
10;499
11;504
12;504
13;504
14;504
15;504
0;504
1;505
2;500
3;492
4;478
5;467
6;459
7;452
8;450
9;453
10;455
11;451
12;445
13;443
14;440
15;438
0;440
1;441
2;443
3;444
4;441
5;434
6;426
7;416
8;403
9;390
10;392
11;423
12;485
13;526
14;527
15;505
0;483
1;471
2;463
3;455
4;441
5;423
6;405
7;401
8;403
9;400
10;395
11;395
12;401
13;403
14;406
15;420
0;442
1;463
2;473
3;482
4;479
5;468
6;454
7;441
8;437
9;439
10;443
11;447
12;454
13;465
14;475
15;483
0;489
1;494
2;492
3;485
4;478
5;465
6;450
7;431
8;412
9;395
10;383
11;376
12;377
13;382
14;395
15;408
0;427
1;451
2;470
3;484
4;499
5;512
6;524
7;527
8;529
9;535
10;540
11;549
12;563
13;584
14;612
15;648
0;691
1;735
2;771
3;792
4;796
5;785
6;765
7;747
8;723
9;669
10;602
11;539
12;482
13;431
14;390
15;353
0;332
1;328
2;333
3;334
4;335
5;344
6;349
7;350
8;358
9;359
10;344
11;334
12;336
13;351
14;359
15;363
0;371
1;382
2;397
3;414
4;430
5;433
6;430
7;427
8;424
9;423
10;419
11;421
12;424
13;428
14;444
15;467
0;481
1;491
2;500
3;510
4;519
5;526
6;533
7;537
8;529
9;510
10;485
11;459
12;433
13;406
14;389
15;387
0;393
1;401
2;411
3;421
4;426
5;429
6;434
7;440
8;444
9;449
10;449
11;444
12;435
13;428
14;421
15;421
0;431
1;444
2;461
3;479
4;497
5;513
6;523
7;529
8;531
9;532
10;538
11;541
12;547
13;550
14;553
15;557
0;559
1;568
2;576
3;585
4;597
5;614
6;627
7;634
8;641
9;643
10;633
11;615
12;603
13;597
14;604
15;614
0;623
1;628
2;636
3;641
4;656
5;672
6;689
7;703
8;716
9;722
10;724
11;722
12;708
13;683
14;664
15;646
0;632
1;626
2;624
3;630
4;640
5;653
6;664
7;677
8;683
9;680
10;675
11;669
12;654
13;630
14;598
15;566
0;541
1;523
2;516
3;518
4;522
5;532
6;549
7;568
8;583
9;590
10;585
11;573
12;557
13;538
14;513
15;488
0;448
1;410
2;385
3;370
4;363
5;366
6;380
7;399
8;418
9;439
10;453
11;456
12;455
13;448
14;439
15;424
0;409
1;398
2;393
3;400
4;415
5;439
6;471
7;490
8;496
9;506
10;518
11;519
12;520
13;519
14;511
15;499
0;485
1;464
2;452
3;449
4;457
5;465
6;477
7;493
8;505
9;522
10;548
11;576
12;587
13;584
14;575
15;552
0;519
1;479
2;441
3;415
4;404
5;404
6;412
7;428
8;447
9;467
10;487
11;502
12;510
13;508
14;496
15;475
0;447
1;419
2;396
3;383
4;380
5;377
6;382
7;395
8;414
9;435
10;450
11;461
12;468
13;463
14;452
15;435
0;412
1;389
2;367
3;344
4;326
5;314
6;314
7;323
8;336
9;352
10;371
11;391
12;414
13;432
14;439
15;438
0;430
1;412
2;384
3;358
4;330
5;309
6;301
7;304
8;317
9;345
10;369
11;390
12;414
13;445
14;473
15;486
0;483
1;453
2;412
3;374
4;344
5;318
6;306
7;307
8;316
9;330
10;350
11;374
12;406
13;456
14;499
15;514
0;507
1;486
2;462
3;438
4;416
5;395
6;380
7;381
8;395
9;410
10;423
11;440
12;457
13;475
14;491
15;504
0;508
1;502
2;497
3;492
4;480
5;463
6;449
7;440
8;440
9;442
10;450
11;460
12;470
13;483
14;497
15;510
0;519
1;520
2;517
3;508
4;495
5;477
6;457
7;443
8;432
9;425
10;426
11;425
12;427
13;435
14;445
15;455
0;461
1;460
2;455
3;446
4;430
5;411
6;397
7;386
8;377
9;380
10;389
11;404
12;426
13;462
14;500
15;539
0;575
1;615
2;640
3;651
4;668
5;697
6;726
7;756
8;767
9;775
10;791
11;797
12;791
13;784
14;774
15;757
0;738
1;714
2;681
3;639
4;593
5;543
6;493
7;449
8;414
9;386
10;367
11;359
12;359
13;364
14;376
15;398
0;415
1;429
2;443
3;452
4;452
5;445
6;436
7;422
8;407
9;393
10;383
11;379
12;384
13;393
14;409
15;431
0;453
1;476
2;497
3;512
4;518
5;518
6;516
7;511
8;498
9;484
10;474
11;468
12;471
13;477
14;487
15;503
0;521
1;536
2;551
3;563
4;573
5;575
6;572
7;566
8;553
9;537
10;521
11;511
12;504
13;504
14;512
15;523
0;534
1;546
2;559
3;575
4;591
5;597
6;594
7;587
8;569
9;543
10;524
11;508
12;502
13;508
14;519
15;531
0;542
1;550
2;556
3;567
4;582
5;598
6;601
7;604
8;611
9;610
10;600
11;576
12;547
13;527
14;533
15;543
0;547
1;551
2;557
3;568
4;583
5;592
6;601
7;608
8;621
9;626
10;616
11;594
12;569
13;547
14;536
15;532
0;534
1;545
2;560
3;572
4;581
5;594
6;603
7;605
8;602
9;599
10;591
11;579
12;559
13;536
14;524
15;522
0;525
1;533
2;545
3;559
4;575
5;591
6;608
7;615
8;613
9;609
10;600
11;585
12;568
13;552
14;540
15;532
0;528
1;524
2;524
3;528
4;534
5;548
6;570
7;595
8;614
9;617
10;612
11;592
12;560
13;529
14;500
15;478
0;464
1;456
2;464
3;482
4;505
5;529
6;551
7;576
8;598
9;607
10;608
11;597
12;570
13;530
14;492
15;463
0;450
1;446
2;454
3;472
4;497
5;536
6;587
7;619
8;623
9;620
10;613
11;595
12;563
13;526
14;487
15;452
0;428
1;410
2;405
3;415
4;446
5;487
6;536
7;578
8;599
9;606
10;608
11;604
12;592
13;572
14;543
15;515
0;488
1;468
2;459
3;463
4;478
5;495
6;519
7;545
8;573
9;601
10;621
11;632
12;629
13;614
14;594
15;564
0;533
1;504
2;482
3;468
4;467
5;475
6;484
7;499
8;518
9;539
10;560
11;570
12;567
13;560
14;548
15;526
0;496
1;467
2;438
3;420
4;419
5;430
6;445
7;457
8;473
9;490
10;519
11;546
12;561
13;560
14;547
15;522
0;486
1;459
2;433
3;410
4;398
5;396
6;403
7;414
8;432
9;457
10;483
11;506
12;521
13;524
14;527
15;533
0;526
1;503
2;467
3;425
4;391
5;378
6;377
7;383
8;389
9;400
10;414
11;432
12;449
13;455
14;455
15;452
0;447
1;435
2;422
3;417
4;407
5;398
6;396
7;398
8;397
9;399
10;406
11;422
12;441
13;456
14;467
15;471
0;470
1;454
2;424
3;393
4;368
5;350
6;341
7;341
8;352
9;371
10;396
11;423
12;451
13;477
14;494
15;500
0;492
1;474
2;446
3;413
4;381
5;353
6;330
7;317
8;315
9;323
10;336
11;357
12;384
13;415
14;449
15;474
0;485
1;488
2;487
3;478
4;473
5;467
6;463
7;468
8;481
9;506
10;532
11;571
12;620
13;669
14;725
15;776
0;805
1;807
2;803
3;779
4;724
5;660
6;593
7;539
8;487
9;440
10;402
11;387
12;385
13;381
14;380
15;390
0;398
1;396
2;386
3;369
4;347
5;324
6;308
7;302
8;300
9;307
10;309
11;315
12;324
13;339
14;364
15;390
0;414
1;430
2;437
3;439
4;432
5;419
6;398
7;376
8;360
9;356
10;362
11;376
12;393
13;412
14;440
15;469
0;498
1;521
2;536
3;543
4;542
5;530
6;512
7;493
8;473
9;458
10;451
11;456
12;471
13;487
14;510
15;533
0;555
1;575
2;591
3;596
4;595
5;586
6;567
7;540
8;515
9;491
10;472
11;461
12;467
13;487
14;519
15;551
0;578
1;604
2;628
3;640
4;632
5;619
6;598
7;574
8;546
9;521
10;504
11;495
12;495
13;499
14;510
15;532
0;560
1;601
2;640
3;671
4;685
5;678
6;667
7;643
8;606
9;575
10;548
11;527
12;516
13;515
14;526
15;551
0;588
1;619
2;646
3;667
4;686
5;694
6;693
7;683
8;658
9;626
10;594
11;567
12;552
13;548
14;558
15;576
0;597
1;620
2;644
3;669
4;693
5;705
6;707
7;701
8;681
9;649
10;620
11;596
12;574
13;560
14;562
15;574
0;589
1;607
2;632
3;660
4;684
5;702
6;707
7;701
8;688
9;664
10;631
11;594
12;569
13;558
14;557
15;567
0;581
1;592
2;611
3;636
4;662
5;685
6;702
7;704
8;691
9;665
10;636
11;603
12;572
13;546
14;531
15;538
0;547
1;552
2;563
3;575
4;590
5;609
6;624
7;629
8;625
9;616
10;600
11;577
12;554
13;526
14;504
15;492
0;489
1;496
2;513
3;536
4;554
5;563
6;577
7;593
8;596
9;587
10;573
11;549
12;525
13;502
14;475
15;457
0;450
1;449
2;455
3;469
4;488
5;508
6;530
7;548
8;564
9;568
10;567
11;568
12;559
13;536
14;502
15;467
0;443
1;437
2;440
3;453
4;472
5;494
6;519
7;550
8;575
9;585
10;579
11;563
12;543
13;515
14;486
15;462
0;446
1;439
2;435
3;439
4;458
5;478
6;494
7;510
8;535
9;561
10;563
11;551
12;529
13;501
14;476
15;449
0;416
1;388
2;370
3;371
4;379
5;390
6;411
7;436
8;464
9;486
10;502
11;504
12;495
13;480
14;454
15;426
0;404
1;386
2;371
3;368
4;373
5;377
6;391
7;416
8;441
9;466
10;487
11;498
12;495
13;480
14;457
15;428
0;398
1;372
2;355
3;348
4;352
5;366
6;390
7;416
8;434
9;451
10;474
11;501
12;517
13;514
14;497
15;469
0;430
1;391
2;361
3;347
4;345
5;357
6;372
7;390
8;410
9;429
10;448
11;462
12;466
13;459
14;452
15;447
0;439
1;426
2;407
3;379
4;354
5;344
6;343
7;349
8;366
9;382
10;394
11;408
12;421
13;424
14;417
15;411
0;398
1;377
2;350
3;328
4;312
5;316
6;338
7;368
8;406
9;447
10;489
11;532
12;577
13;610
14;631
15;640
0;644
1;636
2;625
3;629
4;639
5;644
6;647
7;652
8;655
9;655
10;646
11;630
12;623
13;609
14;575
15;528
0;480
1;433
2;383
3;333
4;293
5;268
6;257
7;255
8;261
9;273
10;293
11;321
12;350
13;376
14;400
15;419
0;428
1;425
2;410
3;383
4;349
5;321
6;308
7;306
8;318
9;339
10;366
11;401
12;435
13;470
14;496
15;510
0;512
1;508
2;500
3;487
4;470
5;456
6;444
7;445
8;461
9;477
10;474
11;483
12;511
13;534
14;554
15;569
0;575
1;572
2;564
3;557
4;542
5;517
6;493
7;473
8;456
9;451
10;457
11;464
12;478
13;501
14;524
15;547
0;573
1;588
2;589
3;582
4;565
5;540
6;513
7;487
8;474
9;465
10;463
11;472
12;486
13;511
14;540
15;564
0;583
1;599
2;605
3;603
4;596
5;582
6;556
7;528
8;501
9;496
10;502
11;503
12;497
13;499
14;518
15;548
0;575
1;600
2;617
3;626
4;625
5;614
6;590
7;562
8;538
9;516
10;507
11;506
12;515
13;535
14;558
15;581
0;612
1;654
2;697
3;725
4;726
5;696
6;659
7;623
8;589
9;563
10;546
11;534
12;526
13;529
14;549
15;575
0;599
1;624
2;647
3;661
4;662
5;658
6;655
7;645
8;624
9;598
10;574
11;560
12;555
13;555
14;558
15;568
0;583
1;597
2;614
3;630
4;642
5;644
6;637
7;620
8;589
9;556
10;525
11;500
12;485
13;477
14;479
15;490
0;506
1;527
2;545
3;563
4;579
5;587
6;585
7;582
8;570
9;548
10;523
11;500
12;481
13;471
14;473
15;480
0;495
1;519
2;540
3;570
4;603
5;624
6;632
7;626
8;600
9;563
10;527
11;504
12;487
13;472
14;463
15;465
0;472
1;491
2;516
3;538
4;560
5;579
6;591
7;598
8;594
9;574
10;539
11;499
12;466
13;449
14;447
15;451
0;466
1;488
2;507
3;534
4;560
5;585
6;616
7;638
8;642
9;635
10;608
11;567
12;527
13;497
14;476
15;464
0;465
1;476
2;491
3;512
4;535
5;555
6;579
7;599
8;605
9;596
10;574
11;535
12;496
13;471
14;464
15;470
0;469
1;469
2;477
3;491
4;514
5;531
6;545
7;561
8;572
9;563
10;543
11;513
12;474
13;434
14;400
15;373
0;360
1;363
2;371
3;381
4;394
5;409
6;427
7;452
8;486
9;512
10;527
11;517
12;488
13;447
14;407
15;371
0;345
1;345
2;358
3;369
4;380
5;388
6;405
7;433
8;462
9;475
10;472
11;462
12;455
13;436
14;409
15;382
0;359
1;351
2;355
3;372
4;398
5;423
6;450
7;478
8;502
9;518
10;524
11;523
12;519
13;508
14;487
15;455
0;419
1;392
2;382
3;398
4;421
5;437
6;455
7;474
8;497
9;520
10;533
11;530
12;514
13;492
14;458
15;427
0;392
1;354
2;324
3;313
4;319
5;333
6;353
7;387
8;426
9;463
10;489
11;512
12;522
13;525
14;526
15;516
0;500
1;493
2;497
3;500
4;511
5;533
6;567
7;612
8;660
9;707
10;755
11;796
12;820
13;820
14;804
15;772
0;727
1;674
2;619
3;564
4;510
5;469
6;443
7;424
8;414
9;414
10;422
11;440
12;458
13;459
14;463
15;467
0;441
1;401
2;378
3;364
4;354
5;343
6;343
7;353
8;367
9;388
10;412
11;432
12;447
13;457
14;462
15;467
0;469
1;446
2;416
3;407
4;398
5;388
6;384
7;396
8;413
9;432
10;454
11;477
12;506
13;529
14;539
15;544
0;543
1;535
2;512
3;483
4;459
5;443
6;439
7;442
8;457
9;483
10;512
11;542
12;572
13;598
14;610
15;619
0;616
1;601
2;576
3;543
4;505
5;474
6;458
7;459
8;471
9;482
10;497
11;524
12;550
13;573
14;590
15;603
0;609
1;612
2;614
3;603
4;588
5;568
6;541
7;527
8;527
9;537
10;549
11;569
12;596
13;614
14;632
15;653
0;668
1;666
2;650
3;628
4;599
5;564
6;536
7;523
8;525
9;544
10;562
11;582
12;609
13;638
14;664
15;691
0;727
1;748
2;748
3;735
4;707
5;670
6;632
7;603
8;585
9;581
10;587
11;595
12;614
13;645
14;668
15;696
0;707
1;719
2;715
3;701
4;681
5;655
6;628
7;602
8;582
9;573
10;571
11;576
12;586
13;603
14;621
15;633
0;651
1;670
2;676
3;668
4;650
5;628
6;595
7;562
8;536
9;519
10;517
11;526
12;539
13;552
14;568
15;585
0;604
1;622
2;635
3;632
4;622
5;601
6;579
7;553
8;525
9;507
10;497
11;490
12;494
13;509
14;527
15;553
0;572
1;587
2;612
3;628
4;626
5;623
6;628
7;602
8;574
9;536
10;498
11;482
12;480
13;487
14;498
15;515
0;536
1;559
2;585
3;606
4;612
5;601
6;579
7;549
8;521
9;497
10;483
11;472
12;467
13;479
14;496
15;508
0;528
1;545
2;560
3;582
4;601
5;609
6;604
7;593
8;572
9;552
10;532
11;511
12;496
13;490
14;496
15;507
0;520
1;544
2;571
3;595
4;610
5;616
6;608
7;591
8;571
9;542
10;508
11;480
12;456
13;451
14;457
15;468
0;483
1;508
2;539
3;562
4;582
5;601
6;607
7;599
8;583
9;558
10;527
11;496
12;470
13;451
14;440
15;445
0;458
1;466
2;480
3;502
4;517
5;544
6;581
7;604
8;601
9;574
10;536
11;490
12;450
13;427
14;428
15;436
0;448
1;452
2;452
3;460
4;478
5;501
6;522
7;531
8;527
9;515
10;493
11;465
12;438
13;412
14;392
15;388
0;399
1;411
2;428
3;445
4;460
5;482
6;509
7;534
8;550
9;551
10;538
11;519
12;496
13;467
14;441
15;419
0;408
1;408
2;418
3;433
4;452
5;476
6;496
7;516
8;534
9;534
10;523
11;504
12;479
13;455
14;438
15;426
0;421
1;412
2;403
3;396
4;408
5;423
6;434
7;451
8;468
9;476
10;470
11;452
12;433
13;406
14;376
15;351
0;340
1;336
2;346
3;380
4;421
5;459
6;504
7;547
8;587
9;624
10;649
11;665
12;675
13;681
14;685
15;687
0;689
1;683
2;681
3;685
4;687
5;687
6;686
7;679
8;668
9;647
10;618
11;577
12;531
13;488
14;444
15;394
0;352
1;316
2;293
3;293
4;309
5;322
6;337
7;358
8;387
9;418
10;446
11;468
12;474
13;467
14;457
15;438
0;410
1;381
2;363
3;364
4;380
5;398
6;409
7;426
8;446
9;470
10;496
11;517
12;531
13;539
14;544
15;532
0;508
1;481
2;457
3;443
4;442
5;459
6;478
7;499
8;525
9;548
10;569
11;587
12;599
13;605
14;611
15;611
0;600
1;576
2;557
3;533
4;508
5;495
6;499
7;514
8;535
9;563
10;594
11;618
12;638
13;647
14;639
15;627
0;603
1;574
2;546
3;521
4;508
5;507
6;520
7;545
8;564
9;577
10;594
11;611
12;628
13;642
14;646
15;639
0;629
1;611
2;587
3;561
4;542
5;528
6;520
7;525
8;538
9;558
10;591
11;641
12;691
13;728
14;736
15;718
0;691
1;662
2;630
3;599
4;573
5;556
6;547
7;550
8;565
9;587
10;602
11;619
12;635
13;659
14;682
15;695
0;694
1;684
2;666
3;636
4;615
5;590
6;572
7;568
8;571
9;576
10;584
11;602
12;625
13;652
14;677
15;695
0;701
1;694
2;674
3;645
4;614
5;589
6;571
7;556
8;551
9;557
10;567
11;578
12;602
13;627
14;652
15;673
0;689
1;697
2;695
3;670
4;641
5;615
6;580
7;551
8;534
9;526
10;527
11;539
12;571
13;607
14;632
15;646
0;656
1;656
2;646
3;626
4;602
5;571
6;535
7;500
8;473
9;456
10;459
11;477
12;505
13;537
14;566
15;588
0;609
1;630
2;636
3;629
4;612
5;584
6;552
7;524
8;500
9;481
10;476
11;483
12;499
13;518
14;541
15;564
0;584
1;603
2;618
3;616
4;602
5;583
6;559
7;532
8;508
9;493
10;488
11;491
12;506
13;526
14;548
15;576
0;600
1;619
2;638
3;647
4;642
5;630
6;610
7;579
8;547
9;519
10;496
11;485
12;487
13;496
14;512
15;530
0;557
1;579
2;606
3;626
4;632
5;620
6;599
7;575
8;542
9;507
10;481
11;465
12;462
13;472
14;495
15;524
0;546
1;559
2;575
3;592
4;601
5;593
6;579
7;562
8;535
9;503
10;473
11;451
12;437
13;430
14;435
15;448
0;466
1;498
2;532
3;564
4;595
5;599
6;585
7;555
8;518
9;480
10;445
11;417
12;397
13;389
14;394
15;408
0;427
1;454
2;485
3;510
4;533
5;553
6;556
7;552
8;540
9;517
10;487
11;459
12;436
13;422
14;423
15;430
0;443
1;461
2;481
3;500
4;518
5;534
6;548
7;544
8;534
9;515
10;491
11;467
12;446
13;428
14;417
15;419
0;427
1;439
2;455
3;477
4;495
5;510
6;525
7;530
8;520
9;501
10;475
11;443
12;412
13;383
14;359
15;345
0;340
1;347
2;361
3;380
4;404
5;425
6;451
7;471
8;477
9;490
10;531
11;568
12;559
13;525
14;495
15;484
0;508
1;545
2;582
3;620
4;664
5;713
6;759
7;793
8;813
9;806
10;786
11;758
12;711
13;647
14;582
15;525
0;480
1;450
2;432
3;421
4;416
5;415
6;414
7;417
8;423
9;422
10;414
11;398
12;377
13;349
14;318
15;294
0;290
1;299
2;311
3;329
4;352
5;375
6;400
7;426
8;456
9;483
10;497
11;496
12;491
13;484
14;476
15;465
0;455
1;450
2;449
3;451
4;461
5;483
6;511
7;536
8;559
9;580
10;599
11;608
12;605
13;596
14;576
15;550
0;524
1;503
2;492
3;489
4;496
5;515
6;543
7;577
8;612
9;627
10;628
11;630
12;619
13;616
14;610
15;592
0;560
1;530
2;508
3;497
4;503
5;517
6;525
7;532
8;545
9;561
10;575
11;595
12;625
13;662
14;689
15;690
0;664
1;621
2;579
3;547
4;534
5;542
6;556
7;574
8;591
9;609
10;630
11;647
12;657
13;658
14;649
15;635
0;613
1;590
2;566
3;539
4;523
5;521
6;526
7;534
8;549
9;571
10;595
11;617
12;637
13;648
14;639
15;622
0;600
1;574
2;551
3;532
4;521
5;515
6;521
7;539
8;560
9;588
10;617
11;639
12;659
13;678
14;686
15;686
0;687
1;673
2;646
3;617
4;595
5;572
6;552
7;547
8;553
9;570
10;589
11;613
12;637
13;651
14;657
15;654
0;646
1;635
2;614
3;580
4;548
5;530
6;521
7;527
8;543
9;575
10;615
11;655
12;675
13;683
14;690
15;692
0;683
1;654
2;620
3;584
4;551
5;525
6;507
7;495
8;496
9;502
10;508
11;518
12;535
13;551
14;565
15;581
0;586
1;581
2;569
3;560
4;546
5;529
6;513
7;497
8;488
9;489
10;498
11;506
12;519
13;533
14;550
15;565
0;576
1;577
2;571
3;562
4;544
5;523
6;505
7;494
8;488
9;489
10;496
11;506
12;520
13;539
14;559
15;577
0;594
1;604
2;608
3;605
4;599
5;590
6;573
7;558
8;545
9;546
10;549
11;558
12;570
13;585
14;604
15;611
0;622
1;632
2;639
3;639
4;624
5;600
6;572
7;542
8;525
9;518
10;533
11;565
12;585
13;583
14;587
15;595
0;604
1;621
2;636
3;644
4;632
5;609
6;578
7;548
8;526
9;514
10;511
11;508
12;511
13;519
14;529
15;537
0;547
1;556
2;560
3;565
4;568
5;566
6;558
7;541
8;522
9;508
10;495
11;488
12;483
13;481
14;481
15;485
0;491
1;497
2;504
3;514
4;522
5;525
6;524
7;521
8;509
9;492
10;475
11;464
12;455
13;450
14;458
15;473
0;496
1;515
2;534
3;551
4;563
5;567
6;560
7;550
8;532
9;517
10;508
11;507
12;502
13;490
14;488
15;489
0;490
1;490
2;492
3;498
4;515
5;530
6;536
7;543
8;559
9;551
10;522
11;488
12;457
13;433
14;425
15;432
0;432
1;421
2;408
3;402
4;396
5;388
6;380
7;376
8;373
9;370
10;368
11;367
12;369
13;376
14;385
15;399
0;414
1;433
2;459
3;490
4;513
5;529
6;547
7;565
8;587
9;611
10;632
11;654
12;679
13;693
14;703
15;704
0;702
1;693
2;680
3;658
4;628
5;594
6;560
7;526
8;505
9;484
10;468
11;445
12;421
13;398
14;379
15;367
0;361
1;362
2;365
3;372
4;384
5;399
6;418
7;446
8;472
9;487
10;490
11;482
12;461
13;435
14;417
15;403
0;388
1;380
2;387
3;395
4;408
5;429
6;454
7;478
8;495
9;506
10;512
11;514
12;510
13;511
14;509
15;507
0;495
1;484
2;485
3;497
4;514
5;532
6;548
7;556
8;563
9;567
10;571
11;572
12;567
13;563
14;560
15;558
0;558
1;558
2;555
3;554
4;557
5;560
6;565
7;566
8;568
9;569
10;566
11;565
12;566
13;563
14;560
15;552
0;548
1;542
2;537
3;536
4;536
5;538
6;542
7;550
8;560
9;570
10;571
11;559
12;550
13;546
14;545
15;542
0;538
1;535
2;533
3;534
4;536
5;535
6;531
7;537
8;545
9;553
10;560
11;554
12;555
13;560
14;564
15;564
0;565
1;573
2;578
3;581
4;584
5;587
6;591
7;589
8;588
9;587
10;583
11;579
12;580
13;589
14;590
15;588
0;588
1;585
2;587
3;590
4;594
5;593
6;594
7;595
8;595
9;594
10;595
11;595
12;589
13;581
14;572
15;563
0;559
1;552
2;551
3;556
4;562
5;568
6;569
7;571
8;572
9;570
10;566
11;559
12;550
13;537
14;523
15;513
0;508
1;510
2;519
3;528
4;532
5;536
6;536
7;539
8;542
9;536
10;533
11;533
12;529
13;535
14;539
15;535
0;531
1;527
2;520
3;522
4;534
5;537
6;533
7;532
8;533
9;527
10;519
11;515
12;527
13;538
14;545
15;549
0;548
1;549
2;543
3;538
4;534
5;528
6;519
7;510
8;507
9;504
10;502
11;503
12;503
13;503
14;502
15;506
0;512
1;514
2;514
3;514
4;513
5;509
6;505
7;500
8;501
9;507
10;513
11;519
12;522
13;527
14;534
15;537
0;538
1;535
2;528
3;519
4;516
5;507
6;500
7;494
8;487
9;490
10;503
11;510
12;504
13;501
14;505
15;507
0;511
1;510
2;509
3;507
4;504
5;501
6;499
7;492
8;486
9;482
10;480
11;476
12;475
13;481
14;486
15;487
0;486
1;484
2;480
3;476
4;473
5;468
6;462
7;455
8;452
9;441
10;436
11;433
12;434
13;436
14;438
15;437
0;436
1;435
2;435
3;436
4;438
5;438
6;437
7;432
8;428
9;423
10;419
11;414
12;416
13;417
14;419
15;422
0;422
1;419
2;409
3;399
4;397
5;407
6;424
7;456
8;492
9;518
10;525
11;505
12;494
13;488
14;480
15;471
0;465
1;461
2;449
3;444
4;453
5;456
6;457
7;456
8;453
9;452
10;452
11;451
12;447
13;440
14;436
15;435
0;434
1;431
2;427
3;422
4;415
5;407
6;399
7;393
8;385
9;376
10;370
11;363
12;353
13;347
14;346
15;347
0;351
1;358
2;368
3;380
4;392
5;408
6;430
7;451
8;471
9;495
10;513
11;530
12;549
13;573
14;608
15;643
0;674
1;703
2;720
3;723
4;720
5;717
6;705
7;689
8;665
9;627
10;579
11;534
12;496
13;464
14;431
15;407
0;395
1;395
2;393
3;388
4;383
5;384
6;385
7;380
8;372
9;371
10;371
11;369
12;372
13;376
14;380
15;383
0;387
1;388
2;391
3;398
4;406
5;410
6;416
7;423
8;429
9;435
10;440
11;444
12;448
13;456
14;456
15;462
0;467
1;475
2;483
3;490
4;496
5;499
6;500
7;507
8;516
9;521
10;525
11;530
12;532
13;537
14;538
15;532
0;529
1;542
2;553
3;554
4;561
5;569
6;567
7;553
8;545
9;543
10;545
11;546
12;541
13;536
14;535
15;534
0;536
1;537
2;536
3;531
4;528
5;528
6;539
7;560
8;586
9;602
10;599
11;579
12;565
13;556
14;553
15;557
0;558
1;554
2;556
3;565
4;571
5;572
6;575
7;573
8;569
9;565
10;571
11;586
12;598
13;603
14;591
15;579
0;572
1;564
2;551
3;549
4;557
5;565
6;568
7;568
8;569
9;570
10;571
11;573
12;572
13;576
14;579
15;577
0;581
1;582
2;580
3;573
4;570
5;577
6;585
7;594
8;596
9;594
10;596
11;600
12;603
13;601
14;596
15;594
0;589
1;584
2;580
3;577
4;571
5;570
6;569
7;563
8;552
9;545
10;556
11;585
12;603
13;617
14;633
15;628
0;613
1;591
2;579
3;574
4;572
5;575
6;570
7;567
8;566
9;569
10;570
11;575
12;574
13;575
14;578
15;583
0;583
1;582
2;582
3;583
4;580
5;582
6;592
7;603
8;607
9;606
10;600
11;588
12;578
13;573
14;569
15;568
0;576
1;579
2;568
3;563
4;563
5;557
6;547
7;539
8;532
9;529
10;529
11;528
12;521
13;516
14;514
15;505
0;501
1;496
2;491
3;489
4;485
5;481
6;474
7;466
8;464
9;471
10;481
11;492
12;504
13;511
14;517
15;527
0;534
1;530
2;515
3;500
4;496
5;492
6;488
7;485
8;485
9;492
10;492
11;492
12;492
13;489
14;496
15;508
0;507
1;510
2;514
3;508
4;508
5;507
6;506
7;502
8;500
9;499
10;494
11;487
12;479
13;478
14;476
15;476
0;473
1;471
2;468
3;464
4;455
5;450
6;449
7;449
8;446
9;443
10;441
11;439
12;435
13;431
14;425
15;422
0;423
1;422
2;420
3;420
4;419
5;414
6;409
7;406
8;408
9;410
10;412
11;413
12;406
13;402
14;409
15;422
0;433
1;440
2;434
3;424
4;411
5;407
6;405
7;415
8;420
9;414
10;407
11;399
12;393
13;396
14;408
15;418
0;415
1;414
2;415
3;421
4;429
5;432
6;426
7;426
8;429
9;425
10;425
11;429
12;430
13;424
14;417
15;413
0;411
1;416
2;417
3;418
4;415
5;414
6;414
7;412
8;409
9;406
10;404
11;405
12;400
13;391
14;388
15;391
0;390
1;390
2;389
3;383
4;371
5;360
6;354
7;354
8;358
9;363
10;363
11;365
12;374
13;386
14;399
15;415
0;442
1;465
2;485
3;503
4;519
5;533
6;549
7;573
8;600
9;626
10;662
11;691
12;706
13;710
14;700
15;693
0;684
1;667
2;644
3;606
4;565
5;530
6;499
7;465
8;432
9;414
10;403
11;396
12;392
13;382
14;372
15;359
0;352
1;351
2;348
3;348
4;361
5;368
6;369
7;382
8;398
9;405
10;403
11;403
12;406
13;394
14;387
15;385
0;384
1;382
2;384
3;389
4;388
5;391
6;400
7;409
8;421
9;428
10;428
11;432
12;443
13;459
14;474
15;487
0;490
1;487
2;484
3;481
4;480
5;480
6;485
7;489
8;493
9;501
10;511
11;514
12;517
13;519
14;517
15;519
0;518
1;518
2;525
3;536
4;539
5;536
6;533
7;529
8;523
9;527
10;533
11;532
12;532
13;536
14;539
15;545
0;548
1;548
2;544
3;540
4;540
5;539
6;537
7;536
8;536
9;547
10;560
11;561
12;559
13;560
14;577
15;577
0;569
1;566
2;578
3;587
4;587
5;595
6;596
7;597
8;588
9;581
10;574
11;567
12;567
13;568
14;571
15;568
0;565
1;553
2;548
3;547
4;545
5;546
6;546
7;548
8;548
9;545
10;543
11;542
12;542
13;540
14;541
15;544
0;546
1;547
2;554
3;558
4;560
5;559
6;556
7;551
8;546
9;544
10;540
11;531
12;523
13;519
14;516
15;518
0;519
1;518
2;520
3;525
4;529
5;533
6;531
7;528
8;520
9;511
10;504
11;496
12;490
13;484
14;482
15;484
0;484
1;484
2;487
3;482
4;487
5;500
6;502
7;493
8;491
9;491
10;501
11;500
12;502
13;502
14;488
15;472
0;465
1;462
2;462
3;459
4;464
5;469
6;472
7;471
8;469
9;464
10;458
11;461
12;473
13;478
14;484
15;485
0;477
1;472
2;471
3;469
4;468
5;474
6;477
7;475
8;478
9;479
10;475
11;469
12;474
13;475
14;474
15;473
0;472
1;469
2;467
3;471
4;480
5;492
6;502
7;509
8;508
9;504
10;508
11;515
12;519
13;513
14;498
15;487
0;484
1;486
2;486
3;495
4;502
5;511
6;520
7;523
8;521
9;516
10;513
11;511
12;505
13;503
14;500
15;497
0;497
1;498
2;494
3;487
4;485
5;480
6;475
7;475
8;473
9;466
10;464
11;467
12;466
13;463
14;461
15;453
0;447
1;445
2;440
3;432
4;431
5;433
6;436
7;432
8;423
9;419
10;416
11;415
12;426
13;440
14;454
15;462
0;460
1;448
2;436
3;428
4;420
5;421
6;418
7;413
8;421
9;427
10;427
11;422
12;413
13;407
14;417
15;434
0;452
1;452
2;441
3;433
4;417
5;413
6;419
7;417
8;413
9;414
10;408
11;407
12;412
13;431
14;450
15;461
0;457
1;445
2;436
3;434
4;428
5;419
6;412
7;409
8;405
9;404
10;408
11;412
12;412
13;416
14;417
15;418
0;420
1;418
2;415
3;406
4;396
5;386
6;378
7;372
8;363
9;352
10;344
11;339
12;336
13;333
14;327
15;319
0;315
1;313
2;315
3;326
4;339
5;342
6;343
7;356
8;377
9;419
10;460
11;491
12;511
13;523
14;541
15;567
0;596
1;620
2;641
3;657
4;663
5;667
6;673
7;668
8;655
9;642
10;620
11;586
12;547
13;502
14;457
15;417
0;381
1;352
2;335
3;321
4;313
5;315
6;323
7;330
8;331
9;332
10;336
11;339
12;343
13;353
14;357
15;356
0;353
1;353
2;350
3;348
4;357
5;369
6;376
7;379
8;382
9;386
10;387
11;389
12;391
13;405
14;423
15;434
0;443
1;448
2;450
3;456
4;463
5;467
6;469
7;472
8;475
9;474
10;483
11;492
12;489
13;486
14;486
15;484
0;484
1;492
2;507
3;519
4;523
5;526
6;529
7;530
8;527
9;517
10;517
11;517
12;515
13;515
14;516
15;513
0;506
1;501
2;494
3;489
4;476
5;469
6;472
7;478
8;491
9;505
10;539
11;558
12;557
13;547
14;531
15;520
0;519
1;521
2;526
3;528
4;526
5;522
6;524
7;524
8;527
9;535
10;540
11;541
12;543
13;548
14;552
15;559
0;562
1;563
2;567
3;572
4;575
5;575
6;575
7;574
8;573
9;577
10;585
11;593
12;600
13;608
14;613
15;615
0;619
1;625
2;627
3;630
4;637
5;642
6;643
7;644
8;647
9;648
10;646
11;644
12;637
13;629
14;624
15;620
0;626
1;634
2;643
3;660
4;670
5;673
6;670
7;666
8;655
9;642
10;629
11;623
12;619
13;610
14;605
15;598
0;592
1;591
2;590
3;586
4;580
5;573
6;564
7;555
8;559
9;568
10;579
11;581
12;577
13;573
14;568
15;569
0;565
1;556
2;554
3;550
4;551
5;550
6;544
7;538
8;501
9;0
10;0
11;0
12;0
13;0
14;0
15;0
0;0
1;0
2;0
3;0
4;0
5;0
6;0
7;0
8;0
9;0
10;0
11;0
12;0
13;0
14;43
15;119
0;195
1;272
2;341
3;398
4;446
5;474
6;460
7;426
8;344
9;251
10;262
11;315
12;367
13;416
14;463
15;509
0;552
1;593
2;627
3;649
4;673
5;694
6;682
7;627
8;531
9;369
10;240
11;247
12;285
13;334
14;387
15;430
0;478
1;525
2;565
3;608
4;644
5;664
6;639
7;552
8;448
9;313
10;160
11;118
12;169
13;236
14;309
15;369
0;418
1;457
2;508
3;561
4;604
5;631
6;636
7;594
8;500
9;406
10;255
11;113
12;118
13;178
14;242
15;306
0;362
1;413
2;460
3;510
4;561
5;603
6;631
7;626
8;558
9;466
10;363
11;218
12;123
13;154
14;214
15;275
0;337
1;388
2;440
3;494
4;547
5;599
6;638
7;664
8;658
9;604
10;543
11;453
12;356
13;355
14;412
15;448
0;481
1;510
2;540
3;575
4;616
5;660
6;695
7;725
8;744
9;739
10;699
11;654
12;552
13;465
14;481
15;521
0;562
1;599
2;626
3;649
4;679
5;715
6;756
7;798
8;841
9;861
10;845
11;812
12;765
13;684
14;623
15;622
0;625
1;626
2;626
3;628
4;634
5;643
6;647
7;652
8;661
9;672
10;682
11;694
12;709
13;720
14;733
15;749
0;766
1;787
2;807
3;830
4;851
5;872
6;898
7;921
8;945
9;970
10;994
11;1019
12;1022
13;1022
14;1022
15;1022
0;1022
1;1022
2;998
3;959
4;922
5;888
6;842
7;797
8;754
9;724
10;710
11;693
12;683
13;686
14;679
15;679
0;672
1;657
2;630
3;564
4;504
5;537
6;561
7;565
8;566
9;566
10;558
11;551
12;536
13;488
14;441
15;370
0;274
1;247
2;278
3;319
4;359
5;395
6;429
7;461
8;505
9;549
10;598
11;646
12;691
13;717
14;714
15;697
0;646
1;588
2;592
3;611
4;627
5;640
6;652
7;670
8;694
9;729
10;767
11;802
12;837
13;862
14;869
15;850
0;816
1;759
2;716
3;722
4;727
5;727
6;730
7;735
8;744
9;760
10;789
11;824
12;851
13;866
14;872
15;861
0;839
1;786
2;708
3;677
4;680
5;680
6;680
7;686
8;692
9;705
10;724
11;743
12;762
13;783
14;803
15;807
0;783
1;743
2;666
3;591
4;591
5;608
6;616
7;620
8;627
9;638
10;660
11;691
12;720
13;747
14;773
15;780
0;762
1;733
2;695
3;635
4;606
5;620
6;635
7;638
8;646
9;666
10;696
11;736
12;772
13;797
14;813
15;821
0;818
1;807
2;790
3;750
4;695
5;677
6;678
7;671
8;666
9;667
10;670
11;682
12;699
13;722
14;745
15;764
0;780
1;783
2;776
3;763
4;718
5;668
6;665
7;668
8;664
9;662
10;663
11;664
12;671
13;684
14;707
15;732
0;756
1;770
2;771
3;763
4;742
5;695
6;652
7;645
8;638
9;626
10;613
11;608
12;618
13;636
14;656
15;679
0;701
1;718
2;725
3;720
4;712
5;679
6;639
7;622
8;609
9;599
10;587
11;577
12;574
13;590
14;623
15;666
0;702
1;728
2;747
3;750
4;735
5;707
6;668
7;638
8;631
9;615
10;605
11;599
12;608
13;619
14;630
15;646
0;671
1;691
2;712
3;735
4;751
5;764
6;753
7;714
8;678
9;655
10;632
11;607
12;595
13;595
14;603
15;619
0;644
1;669
2;692
3;715
4;730
5;736
6;733
7;712
8;675
9;650
10;631
11;608
12;585
13;571
14;567
15;573
0;591
1;612
2;636
3;657
4;671
5;676
6;673
7;662
8;635
9;603
10;589
11;571
12;552
13;541
14;534
15;536
0;546
1;565
2;590
3;610
4;627
5;636
6;641
7;638
8;623
9;596
10;569
11;548
12;524
13;504
14;491
15;481
0;486
1;499
2;526
3;556
4;580
5;596
6;596
7;585
8;568
9;537
10;494
11;468
12;455
13;443
14;429
15;409
0;395
1;397
2;423
3;451
4;483
5;505
6;517
7;519
8;515
9;498
10;458
11;413
12;401
13;387
14;368
15;350
0;337
1;332
2;336
3;355
4;380
5;401
6;420
7;430
8;430
9;423
10;409
11;374
12;347
13;336
14;321
15;310
0;302
1;300
2;307
3;327
4;352
5;372
6;392
7;408
8;410
9;399
10;384
11;347
12;297
13;271
14;253
15;236
0;222
1;210
2;208
3;216
4;235
5;263
6;296
7;326
8;352
9;373
10;387
11;397
12;396
13;390
14;397
15;407
0;413
1;424
2;444
3;477
4;523
5;572
6;629
7;679
8;729
9;768
10;783
11;774
12;743
13;704
14;660
15;620
0;574
1;517
2;467
3;422
4;391
5;377
6;384
7;397
8;416
9;436
10;449
11;456
12;457
13;444
14;428
15;422
0;422
1;417
2;412
3;408
4;410
5;422
6;448
7;478
8;510
9;543
10;560
11;575
12;590
13;603
14;596
15;578
0;562
1;546
2;530
3;521
4;522
5;534
6;549
7;571
8;592
9;613
10;641
11;665
12;682
13;687
14;685
15;670
0;652
1;632
2;611
3;595
4;587
5;577
6;576
7;594
8;613
9;630
10;644
11;655
12;663
13;664
14;660
15;640
0;611
1;588
2;567
3;544
4;521
5;506
6;498
7;502
8;512
9;528
10;545
11;567
12;570
13;567
14;552
15;529
0;483
1;431
2;412
3;391
4;370
5;353
6;340
7;334
8;339
9;357
10;378
11;394
12;406
13;418
14;420
15;415
0;396
1;355
2;321
3;301
4;285
5;281
6;289
7;299
8;319
9;340
10;364
11;387
12;413
13;442
14;466
15;487
0;494
1;473
2;445
3;431
4;415
5;398
6;387
7;386
8;387
9;399
10;423
11;452
12;482
13;505
14;525
15;539
0;539
1;528
2;504
3;478
4;465
5;453
6;444
7;437
8;435
9;445
10;464
11;490
12;516
13;537
14;555
15;569
0;577
1;575
2;563
3;542
4;521
5;504
6;483
7;464
8;454
9;452
10;459
11;473
12;492
13;512
14;534
15;555
0;570
1;575
2;569
3;550
4;523
5;506
6;488
7;468
8;450
9;439
10;438
11;443
12;459
13;473
14;486
15;502
0;517
1;526
2;525
3;519
4;507
5;482
6;457
7;448
8;437
9;428
10;429
11;423
12;412
13;390
14;362
15;329
0;307
1;298
2;300
3;294
4;283
5;274
6;266
7;261
8;252
9;252
10;250
11;243
12;241
13;243
14;245
15;245
0;242
1;239
2;237
3;236
4;246
5;258
6;265
7;277
8;289
9;298
10;308
11;320
12;330
13;336
14;341
15;346
0;346
1;344
2;347
3;345
4;344
5;345
6;352
7;355
8;357
9;356
10;355
11;354
12;352
13;348
14;344
15;337
0;330
1;324
2;322
3;318
4;314
5;316
6;320
7;320
8;316
9;314
10;313
11;312
12;313
13;307
14;299
15;295
0;290
1;284
2;279
3;277
4;276
5;276
6;279
7;280
8;278
9;275
10;271
11;267
12;273
13;278
14;276
15;270
0;262
1;261
2;284
3;321
4;352
5;364
6;359
7;341
8;331
9;314
10;299
11;284
12;274
13;269
14;266
15;270
0;284
1;292
2;290
3;291
4;297
5;298
6;302
7;306
8;310
9;314
10;316
11;321
12;326
13;328
14;331
15;329
0;327
1;328
2;327
3;325
4;326
5;332
6;335
7;337
8;342
9;344
10;343
11;345
12;349
13;351
14;352
15;351
0;349
1;350
2;351
3;350
4;346
5;341
6;334
7;324
8;313
9;305
10;298
11;292
12;287
13;284
14;285
15;290
0;293
1;292
2;297
3;307
4;320
5;334
6;349
7;367
8;388
9;413
10;437
11;460
12;487
13;518
14;550
15;581
0;611
1;638
2;660
3;675
4;680
5;674
6;660
7;640
8;608
9;571
10;537
11;495
12;446
13;404
14;371
15;354
0;343
1;322
2;302
3;286
4;274
5;266
6;266
7;270
8;272
9;277
10;282
11;293
12;304
13;311
14;321
15;333
0;341
1;353
2;361
3;365
4;369
5;382
6;397
7;404
8;404
9;399
10;400
11;405
12;411
13;417
14;423
15;431
0;441
1;454
2;465
3;472
4;478
5;484
6;487
7;491
8;495
9;495
10;498
11;504
12;510
13;516
14;524
15;531
0;536
1;538
2;536
3;539
4;539
5;537
6;536
7;531
8;528
9;529
10;529
11;531
12;535
13;538
14;540
15;541
0;545
1;546
2;545
3;549
4;557
5;566
6;577
7;589
8;593
9;598
10;606
11;605
12;587
13;556
14;527
15;504
0;494
1;487
2;483
3;485
4;492
5;498
6;503
7;509
8;512
9;514
10;514
11;516
12;519
13;525
14;537
15;545
0;553
1;557
2;559
3;554
4;565
5;583
6;602
7;627
8;647
9;641
10;622
11;610
12;611
13;615
14;621
15;632
0;638
1;641
2;643
3;645
4;645
5;649
6;662
7;671
8;664
9;653
10;648
11;649
12;651
13;657
14;661
15;659
0;657
1;658
2;661
3;664
4;665
5;665
6;668
7;668
8;663
9;647
10;665
11;684
12;688
13;687
14;684
15;1011
0;963
1;902
2;854
3;807
4;752
5;696
6;638
7;582
8;533
9;491
10;451
11;415
12;384
13;354
14;316
15;270
0;221
1;170
2;118
3;69
4;22
5;0
6;0
7;0
8;0
9;0
10;0
11;0
12;0
13;0
14;0
15;0
0;0
1;0
2;0
3;0
4;0
5;0
6;0
7;0
8;0
9;0
10;0
11;0
12;0
13;0
14;0
15;0
0;0
1;0
2;0
3;0
4;0
5;0
6;0
7;0
8;0
9;0
10;0
11;0
12;0
13;0
14;0
15;0
0;0
1;0
2;0
3;0
4;0
5;0
6;0
7;0
8;0
9;0
10;0
11;0
12;16
13;46
14;73
15;102
0;134
1;161
2;177
3;182
4;182
5;177
6;171
7;164
8;159
9;158
10;161
11;169
12;190
13;218
14;248
15;279
0;311
1;339
2;363
3;380
4;393
5;398
6;396
7;395
8;403
9;416
10;422
11;419
12;448
13;1023
14;1022
15;1022
0;1022
1;1022
2;1022
3;1022
4;1018
5;888
6;796
7;720
8;655
9;600
10;562
11;545
12;1022
13;1022
14;1022
15;1022
0;1022
1;1022
2;1022
3;1022
4;1022
5;1022
6;936
7;782
8;658
9;558
10;483
11;427
12;385
13;350
14;323
15;314
0;313
1;323
2;339
3;345
4;347
5;350
6;339
7;309
8;274
9;246
10;219
11;193
12;175
13;159
14;150
15;157
0;177
1;203
2;227
3;250
4;267
5;277
6;279
7;275
8;261
9;244
10;225
11;201
12;180
13;167
14;162
15;168
0;178
1;193
2;209
3;225
4;237
5;239
6;232
7;224
8;210
9;189
10;168
11;145
12;124
13;108
14;96
15;94
0;106
1;131
2;166
3;203
4;238
5;270
6;288
7;301
8;313
9;309
10;305
11;310
12;317
13;319
14;319
15;330
0;343
1;357
2;373
3;376
4;369
5;360
6;360
7;360
8;351
9;309
10;233
11;157
12;87
13;17
14;0
15;0
0;0
1;0
2;0
3;0
4;0
5;0
6;0
7;0
8;0
9;0
10;0
11;0
12;0
13;0
14;0
15;0
0;0
1;0
2;0
3;0
4;0
5;0
6;0
7;9
8;0
9;0
10;0
11;0
12;0
13;0
14;0
15;0
0;0
1;0
2;0
3;0
4;0
5;26
6;61
7;91
8;100
9;80
10;47
11;0
12;0
13;0
14;0
15;0
0;0
1;0
2;26
3;55
4;88
5;122
6;161
7;204
8;236
9;246
10;241
11;228
12;173
13;102
14;103
15;131
0;160
1;207
2;272
3;321
4;339
5;359
6;380
7;408
8;433
9;457
10;463
11;463
12;452
13;401
14;356
15;361
0;377
1;394
2;408
3;423
4;446
5;473
6;504
7;535
8;564
9;600
10;627
11;643
12;647
13;639
14;615
15;613
0;619
1;613
2;607
3;611
4;627
5;649
6;676
7;705
8;733
9;761
10;789
11;812
12;822
13;826
14;812
15;784
0;773
1;766
2;760
3;757
4;755
5;760
6;768
7;784
8;807
9;837
10;863
11;875
12;870
13;861
14;841
15;793
0;749
1;743
2;736
3;724
4;715
5;710
6;708
7;713
8;728
9;748
10;777
11;804
12;820
13;825
14;813
15;777
0;732
1;704
2;688
3;679
4;679
5;681
6;681
7;693
8;715
9;742
10;769
11;796
12;820
13;836
14;1022
15;1022
0;1022
1;1022
2;1022
3;1022
4;1015
5;999
6;988
7;978
8;970
9;963
10;957
11;952
12;946
13;940
14;935
15;931
0;928
1;923
2;920
3;915
4;911
5;908
6;904
7;901
8;897
9;893
10;891
11;886
12;882
13;880
14;876
15;873
0;870
1;866
2;862
3;860
4;856
5;852
6;848
7;849
8;848
9;845
10;839
11;833
12;829
13;825
14;824
15;824
0;823
1;821
2;818
3;815
4;813
5;811
6;806
7;807
8;806
9;801
10;801
11;801
12;796
13;790
14;790
15;788
0;786
1;786
2;784
3;782
4;782
5;780
6;777
7;777
8;776
9;774
10;773
11;771
12;773
13;772
14;769
15;766
0;762
1;761
2;760
3;756
4;753
5;750
6;749
7;747
8;742
9;736
10;728
11;721
12;713
13;704
14;697
15;688
0;680
1;673
2;667
3;659
4;651
5;645
6;639
7;632
8;627
9;622
10;618
11;613
12;609
13;605
14;599
15;595
0;590
1;585
2;581
3;577
4;576
5;573
6;570
7;566
8;562
9;560
10;560
11;558
12;557
13;556
14;554
15;551
0;550
1;546
2;546
3;545
4;546
5;539
6;535
7;535
8;534
9;533
10;533
11;533
12;533
13;531
14;532
15;531
0;531
1;531
2;531
3;528
4;527
5;527
6;526
7;524
8;523
9;523
10;524
11;521
12;519
13;519
14;520
15;519
0;520
1;521
2;520
3;519
4;519
5;518
6;517
7;516
8;517
9;516
10;514
11;515
12;517
13;517
14;518
15;523
0;535
1;540
2;547
3;560
4;572
5;590
6;608
7;624
8;635
9;645
10;654
11;663
12;678
13;694
14;708
15;728
0;749
1;763
2;768
3;761
4;743
5;715
6;683
7;644
8;597
9;546
10;487
11;422
12;368
13;322
14;292
15;276
0;270
1;266
2;260
3;251
4;240
5;230
6;217
7;204
8;195
9;183
10;160
11;132
12;108
13;87
14;77
15;73
0;76
1;82
2;85
3;81
4;79
5;78
6;81
7;80
8;76
9;509
10;1022
11;1022
12;1022
13;1022
14;1022
15;1022
0;1023
1;1022
2;892
3;796
4;723
5;666
6;623
7;589
8;563
9;545
10;530
11;1022
12;1023
13;1022
14;1022
15;947
0;828
1;736
2;669
3;618
4;579
5;549
6;527
7;508
8;495
9;486
10;479
11;472
12;467
13;465
14;462
15;462
0;461
1;460
2;460
3;460
4;462
5;462
6;463
7;462
8;462
9;463
10;463
11;463
12;464
13;464
14;464
15;465
0;466
1;468
2;467
3;467
4;469
5;467
6;468
7;468
8;470
9;468
10;468
11;468
12;465
13;467
14;469
15;468
0;472
1;474
2;470
3;469
4;467
5;470
6;468
7;468
8;468
9;470
10;469
11;468
12;468
13;470
14;468
15;467
0;466
1;471
2;472
3;471
4;473
5;475
6;476
7;476
8;476
9;475
10;475
11;474
12;473
13;472
14;469
15;470
0;471
1;471
2;472
3;473
4;476
5;477
6;480
7;480
8;482
9;481
10;483
11;484
12;484
13;485
14;485
15;486
0;487
1;488
2;489
3;490
4;492
5;493
6;495
7;496
8;497
9;499
10;498
11;499
12;500
13;500
14;500
15;500
0;500
1;499
2;499
3;502
4;504
5;506
6;509
7;509
8;508
9;505
10;505
11;504
12;504
13;507
14;508
15;506
0;506
1;506
2;506
3;509
4;509
5;507
6;508
7;510
8;507
9;507
10;508
11;508
12;507
13;506
14;509
15;510
0;508
1;508
2;507
3;508
4;506
5;506
6;508
7;510
8;510
9;510
10;509
11;510
12;511
13;510
14;510
15;509
0;825
1;1022
2;1022
3;1023
4;1022
5;1022
6;988
7;863
8;768
9;697
10;642
11;600
12;568
13;544
14;525
15;1019
0;1022
1;1022
2;1022
3;1022
4;902
5;892
6;1022
7;1022
8;902
9;784
10;696
11;627
12;577
13;537
14;578
15;1022
0;1022
1;911
2;765
3;651
4;563
5;498
6;448
7;1022
8;848
9;734
10;652
11;590
12;542
13;507
14;479
15;1022
0;1022
1;979
2;824
3;693
4;586
5;498
6;422
7;461
8;1022
9;934
10;796
11;690
12;610
13;552
14;508
15;1022
0;1022
1;964
2;790
3;656
4;558
5;477
6;422
7;388
8;716
9;1022
10;1022
11;924
12;783
13;673
14;593
15;1022
0;1022
1;1022
2;1022
3;831
4;667
5;541
6;446
7;370
8;309
9;776
10;1022
11;1022
12;1022
13;850
14;714
15;1022
0;1022
1;1022
2;1022
3;1022
4;867
5;711
6;591
7;488
8;405
9;336
10;1022
11;1023
12;1022
13;1022
14;1022
15;1022
0;1022
1;1022
2;1022
3;977
4;767
5;604
6;472
7;366
8;280
9;210
10;155
11;113
12;86
13;1022
14;1022
15;1022
0;1022
1;1022
2;874
3;659
4;498
5;369
6;255
7;164
8;95
9;42
10;0
11;0
12;0
13;0
14;0
15;0
0;0
1;0
2;0
3;0
4;0
5;0
6;0
7;0
8;0
9;0
10;0
11;0
12;0
13;0
14;0
15;0
0;0
1;0
2;0
3;0
4;0
5;0
6;0
7;0
8;0
9;0
10;0
11;0
12;0
13;0
14;0
15;0
0;0
1;0
2;0
3;0
4;0
5;0
6;0
7;0
8;0
9;0
10;0
11;0
12;0
13;0
14;0
15;0
0;0
1;0
2;0
3;0
4;0
5;0
6;0
7;0
8;0
9;0
10;0
11;0
12;0
13;0
14;0
15;0
0;0
1;0
2;0
3;0
4;0
5;0
6;0
7;0
8;0
9;0
10;0
11;0
12;0
13;0
14;0
15;0
0;0
1;0
2;0
3;0
4;0
5;0
6;0
7;0
8;0
9;0
10;0
11;0
12;0
13;0
14;0
15;0
0;0
1;0
2;0
3;0
4;0
5;0
6;15
7;25
8;41
9;51
10;61
11;71
12;76
13;87
14;99
15;110
0;121
1;128
2;136
3;146
4;156
5;164
6;172
7;175
8;173
9;173
10;180
11;191
12;198
13;205
14;214
15;223
0;235
1;250
2;261
3;271
4;278
5;276
6;273
7;274
8;277
9;288
10;306
11;320
12;329
13;331
14;334
15;338
0;342
1;348
2;351
3;353
4;357
5;359
6;359
7;362
8;367
9;368
10;369
11;370
12;377
13;376
14;375
15;375
0;374
1;374
2;375
3;379
4;388
5;415
6;449
7;470
8;483
9;495
10;491
11;474
12;462
13;462
14;467
15;473
0;478
1;479
2;481
3;483
4;484
5;487
6;490
7;491
8;489
9;486
10;485
11;486
12;490
13;496
14;495
15;496
0;503
1;509
2;515
3;516
4;512
5;508
6;505
7;505
8;505
9;507
10;508
11;510
12;512
13;517
14;520
15;519
0;517
1;514
2;513
3;515
4;521
5;531
6;543
7;559
8;566
9;567
10;569
11;574
12;571
13;564
14;557
15;557
0;554
1;550
2;551
3;551
4;554
5;557
6;554
7;548
8;543
9;550
10;567
11;578
12;582
13;582
14;582
15;575
0;561
1;556
2;563
3;572
4;582
5;588
6;588
7;587
8;585
9;579
10;570
11;560
12;554
13;548
14;547
15;550
0;548
1;543
2;546
3;551
4;552
5;557
6;565
7;569
8;569
9;571
10;568
11;559
12;556
13;556
14;555
15;554
0;556
1;558
2;558
3;560
4;558
5;557
6;559
7;562
8;559
9;558
10;559
11;556
12;552
13;551
14;551
15;550
0;551
1;553
2;556
3;562
4;567
5;570
6;570
7;571
8;567
9;563
10;564
11;570
12;576
13;574
14;574
15;575
0;578
1;586
2;607
3;619
4;627
5;633
6;634
7;633
8;621
9;600
10;588
11;589
12;593
13;603
14;615
15;617
0;615
1;621
2;629
3;637
4;647
5;656
6;667
7;671
8;671
9;665
10;655
11;645
12;639
13;624
14;608
15;596
0;586
1;574
2;569
3;575
4;569
5;564
6;567
7;566
8;558
9;551
10;550
11;544
12;535
13;526
14;518
15;516
0;520
1;529
2;545
3;568
4;591
5;610
6;636
7;667
8;692
9;717
10;741
11;767
12;796
13;821
14;847
15;871
0;883
1;884
2;880
3;869
4;853
5;834
6;808
7;777
8;740
9;699
10;659
11;619
12;583
13;557
14;540
15;525
0;513
1;503
2;500
3;504
4;512
5;519
6;520
7;523
8;531
9;533
10;535
11;539
12;537
13;532
14;527
15;532
0;538
1;544
2;551
3;557
4;565
5;565
6;566
7;569
8;577
9;587
10;597
11;617
12;640
13;654
14;652
15;648
0;640
1;629
2;623
3;618
4;615
5;617
6;620
7;624
8;631
9;644
10;658
11;665
12;673
13;681
14;685
15;686
0;681
1;673
2;668
3;666
4;662
5;655
6;656
7;661
8;664
9;673
10;684
11;696
12;703
13;707
14;702
15;691
0;687
1;683
2;673
3;664
4;657
5;655
6;657
7;664
8;672
9;680
10;692
11;704
12;713
13;719
14;721
15;723
0;723
1;719
2;716
3;718
4;718
5;714
6;711
7;717
8;722
9;723
10;736
11;752
12;752
13;744
14;743
15;747
0;751
1;765
2;765
3;760
4;749
5;738
6;732
7;736
8;743
9;741
10;733
11;735
12;743
13;750
14;760
15;766
0;769
1;768
2;765
3;761
4;749
5;737
6;728
7;723
8;728
9;731
10;733
11;734
12;734
13;736
14;736
15;734
0;736
1;735
2;728
3;723
4;719
5;710
6;703
7;700
8;697
9;697
10;699
11;704
12;708
13;714
14;719
15;719
0;715
1;709
2;701
3;694
4;690
5;706
6;721
7;733
8;741
9;745
10;748
11;747
12;744
13;742
14;739
15;734
0;730
1;725
2;720
3;714
4;710
5;705
6;701
7;698
8;694
9;691
10;689
11;684
12;683
13;679
14;679
15;676
0;674
1;671
2;670
3;668
4;666
5;664
6;663
7;658
8;659
9;657
10;655
11;654
12;652
13;649
14;651
15;652
0;656
1;655
2;652
3;644
4;642
5;641
6;641
7;639
8;639
9;637
10;638
11;637
12;637
13;635
14;633
15;635
0;634
1;633
2;632
3;633
4;633
5;629
6;625
7;624
8;624
9;623
10;622
11;623
12;624
13;623
14;621
15;620
0;622
1;622
2;620
3;619
4;618
5;617
6;617
7;615
8;614
9;614
10;612
11;611
12;611
13;610
14;607
15;603
0;601
1;599
2;595
3;591
4;589
5;584
6;580
7;577
8;573
9;569
10;567
11;563
12;561
13;559
14;557
15;555
0;555
1;554
2;551
3;549
4;547
5;544
6;543
7;541
8;539
9;537
10;536
11;537
12;536
13;534
14;533
15;533
0;531
1;529
2;529
3;528
4;528
5;530
6;528
7;527
8;527
9;523
10;523
11;521
12;520
13;522
14;521
15;525
0;520
1;520
2;523
3;521
4;520
5;519
6;519
7;518
8;515
9;515
10;516
11;514
12;515
13;517
14;516
15;516
0;516
1;516
2;517
3;517
4;517
5;516
6;516
7;515
8;514
9;513
10;512
11;513
12;512
13;512
14;510
15;511
0;512
1;512
2;513
3;513
4;513
5;512
6;509
7;506
8;501
9;497
10;495
11;493
12;490
13;486
14;485
15;487
0;492
1;507
2;528
3;553
4;579
5;607
6;636
7;663
8;690
9;715
10;745
11;775
12;803
13;824
14;843
15;852
0;849
1;835
2;824
3;817
4;802
5;779
6;757
7;728
8;690
9;647
10;607
11;568
12;539
13;517
14;505
15;496
0;488
1;474
2;473
3;476
4;470
5;467
6;474
7;486
8;499
9;516
10;527
11;526
12;524
13;519
14;513
15;505
0;503
1;503
2;503
3;509
4;512
5;511
6;515
7;531
8;544
9;555
10;561
11;567
12;579
13;589
14;590
15;585
0;580
1;582
2;577
3;579
4;582
5;587
6;593
7;607
8;624
9;645
10;662
11;668
12;672
13;659
14;648
15;640
0;631
1;621
2;610
3;600
4;596
5;599
6;606
7;610
8;612
9;611
10;613
11;624
12;634
13;632
14;629
15;624
0;621
1;618
2;620
3;619
4;618
5;618
6;619
7;619
8;624
9;632
10;640
11;648
12;665
13;682
14;685
15;683
0;671
1;652
2;634
3;628
4;626
5;621
6;628
7;626
8;619
9;623
10;635
11;646
12;658
13;668
14;678
15;685
0;688
1;681
2;672
3;665
4;655
5;640
6;633
7;634
8;642
9;651
10;661
11;671
12;678
13;681
14;683
15;683
0;686
1;693
2;688
3;678
4;665
5;654
6;646
7;643
8;643
9;647
10;651
11;656
12;656
13;657
14;658
15;660
0;659
1;664
2;663
3;655
4;641
5;622
6;603
7;593
8;608
9;636
10;654
11;659
12;657
13;655
14;650
15;647
0;647
1;652
2;651
3;641
4;635
5;628
6;614
7;600
8;586
9;579
10;577
11;578
12;583
13;589
14;592
15;598
0;603
1;601
2;596
3;589
4;576
5;563
6;554
7;545
8;538
9;539
10;541
11;542
12;548
13;557
14;563
15;571
0;576
1;578
2;579
3;581
4;576
5;566
6;561
7;548
8;534
9;526
10;525
11;526
12;527
13;527
14;530
15;535
0;541
1;543
2;543
3;542
4;542
5;538
6;533
7;529
8;523
9;515
10;509
11;508
12;513
13;529
14;544
15;548
0;551
1;558
2;566
3;568
4;571
5;570
6;569
7;568
8;556
9;537
10;521
11;514
12;516
13;532
14;554
15;557
0;551
1;545
2;540
3;536
4;540
5;548
6;548
7;532
8;517
9;507
10;501
11;494
12;491
13;487
14;481
15;483
0;486
1;492
2;501
3;504
4;506
5;503
6;502
7;498
8;487
9;480
10;469
11;459
12;454
13;452
14;448
15;448
0;456
1;462
2;467
3;476
4;481
5;478
6;472
7;465
8;457
9;447
10;442
11;434
12;426
13;419
14;411
15;410
0;417
1;425
2;436
3;443
4;446
5;446
6;448
7;448
8;447
9;444
10;443
11;440
12;432
13;434
14;434
15;437
0;438
1;432
2;435
3;449
4;468
5;472
6;465
7;463
8;458
9;445
10;425
11;419
12;418
13;424
14;435
15;446
0;445
1;447
2;453
3;455
4;460
5;463
6;463
7;464
8;463
9;458
10;451
11;441
12;434
13;421
14;404
15;393
0;388
1;380
2;374
3;373
4;367
5;365
6;366
7;362
8;357
9;356
10;354
11;342
12;340
13;345
14;354
15;365
0;387
1;415
2;440
3;467
4;497
5;525
6;553
7;580
8;604
9;630
10;654
11;676
12;698
13;708
14;709
15;702
0;690
1;674
2;658
3;633
4;610
5;579
6;546
7;506
8;468
9;439
10;419
11;404
12;383
13;368
14;352
15;336
0;326
1;319
2;315
3;314
4;320
5;335
6;349
7;364
8;382
9;394
10;397
11;399
12;397
13;392
14;388
15;380
0;375
1;372
2;377
3;385
4;396
5;409
6;429
7;443
8;449
9;457
10;470
11;476
12;480
13;490
14;493
15;491
0;487
1;481
2;488
3;495
4;500
5;504
6;514
7;520
8;525
9;529
10;523
11;519
12;527
13;534
14;533
15;529
0;520
1;515
2;520
3;519
4;510
5;504
6;512
7;524
8;536
9;543
10;547
11;547
12;541
13;538
14;537
15;532
0;525
1;516
2;509
3;508
4;511
5;514
6;519
7;523
8;524
9;527
10;535
11;544
12;553
13;556
14;551
15;547
0;536
1;528
2;525
3;527
4;531
5;536
6;539
7;545
8;556
9;564
10;568
11;572
12;577
13;579
14;578
15;575
0;569
1;565
2;562
3;560
4;562
5;566
6;571
7;573
8;574
9;576
10;577
11;594
12;619
13;631
14;641
15;641
0;647
1;647
2;646
3;636
4;621
5;612
6;605
7;599
8;595
9;600
10;607
11;609
12;608
13;602
14;595
15;592
0;592
1;583
2;574
3;569
4;560
5;550
6;544
7;545
8;543
9;542
10;547
11;552
12;559
13;570
14;574
15;572
0;572
1;572
2;562
3;554
4;546
5;531
6;520
7;519
8;517
9;517
10;528
11;537
12;541
13;545
14;545
15;534
0;522
1;512
2;508
3;501
4;498
5;498
6;493
7;490
8;490
9;492
10;494
11;500
12;506
13;508
14;513
15;512
0;505
1;507
2;511
3;508
4;501
5;496
6;487
7;478
8;478
9;480
10;480
11;488
12;500
13;507
14;513
15;520
0;520
1;518
2;519
3;515
4;506
5;499
6;498
7;497
8;490
9;489
10;496
11;508
12;517
13;523
14;531
15;536
0;537
1;535
2;538
3;539
4;526
5;516
6;513
7;514
8;518
9;514
10;510
11;508
12;508
13;508
14;509
15;515
0;527
1;528
2;522
3;514
4;505
5;498
6;489
7;474
8;461
9;452
10;451
11;446
12;448
13;459
14;469
15;476
0;485
1;492
2;495
3;491
4;489
5;481
6;470
7;460
8;454
9;448
10;438
11;431
12;426
13;424
14;427
15;432
0;436
1;440
2;441
3;449
4;448
5;440
6;430
7;421
8;415
9;409
10;406
11;403
12;402
13;403
14;407
15;414
0;420
1;430
2;441
3;450
4;450
5;447
6;447
7;447
8;442
9;435
10;425
11;419
12;413
13;410
14;409
15;412
0;414
1;414
2;419
3;424
4;422
5;416
6;414
7;421
8;444
9;452
10;459
11;469
12;484
13;498
14;506
15;503
0;492
1;479
2;475
3;470
4;464
5;458
6;453
7;444
8;427
9;412
10;399
11;383
12;370
13;363
14;362
15;355
0;346
1;348
2;352
3;353
4;353
5;358
6;357
7;355
8;353
9;354
10;369
11;385
12;397
13;411
14;433
15;451
0;469
1;487
2;512
3;538
4;566
5;597
6;623
7;651
8;681
9;700
10;702
11;701
12;698
13;693
14;685
15;672
0;636
1;583
2;533
3;490
4;454
5;424
6;403
7;388
8;382
9;377
10;366
11;352
12;342
13;334
14;329
15;331
0;333
1;341
2;354
3;369
4;382
5;394
6;407
7;412
8;415
9;419
10;410
11;400
12;397
13;395
14;386
15;378
0;381
1;389
2;399
3;413
4;430
5;446
6;461
7;473
8;482
9;484
10;486
11;487
12;483
13;478
14;475
15;475
0;486
1;503
2;521
3;536
4;539
5;540
6;544
7;549
8;556
9;562
10;559
11;552
12;540
13;527
14;517
15;508
0;504
1;515
2;532
3;551
4;558
5;553
6;545
7;538
8;533
9;542
10;566
11;584
12;585
13;577
14;571
15;570
0;560
1;546
2;539
3;541
4;543
5;549
6;554
7;557
8;561
9;565
10;568
11;568
12;567
13;562
14;556
15;550
0;545
1;541
2;539
3;542
4;544
5;548
6;554
7;560
8;567
9;579
10;587
11;589
12;592
13;596
14;596
15;592
0;588
1;582
2;575
3;573
4;573
5;571
6;572
7;581
8;591
9;597
10;603
11;615
12;625
13;632
14;630
15;624
0;616
1;608
2;595
3;594
4;604
5;609
6;614
7;616
8;616
9;620
10;633
11;638
12;632
13;616
14;599
15;588
0;587
1;595
2;584
3;566
4;558
5;555
6;556
7;554
8;561
9;569
10;581
11;594
12;598
13;594
14;590
15;585
0;579
1;566
2;559
3;550
4;539
5;533
6;524
7;517
8;518
9;526
10;532
11;541
12;551
13;551
14;547
15;542
0;536
1;524
2;515
3;511
4;507
5;502
6;501
7;503
8;504
9;509
10;515
11;522
12;530
13;533
14;532
15;530
0;525
1;518
2;513
3;510
4;504
5;496
6;492
7;492
8;489
9;492
10;499
11;505
12;512
13;519
14;523
15;523
0;523
1;522
2;517
3;511
4;506
5;499
6;496
7;503
8;508
9;514
10;525
11;534
12;540
13;548
14;558
15;561
0;560
1;551
2;546
3;542
4;543
5;538
6;527
7;522
8;521
9;512
10;502
11;499
12;513
13;535
14;537
15;529
0;524
1;524
2;519
3;505
4;486
5;474
6;470
7;474
8;479
9;482
10;481
11;481
12;479
13;478
14;479
15;485
0;488
1;483
2;475
3;468
4;464
5;458
6;450
7;441
8;435
9;434
10;437
11;441
12;447
13;449
14;451
15;453
0;456
1;455
2;451
3;446
4;440
5;430
6;421
7;413
8;408
9;405
10;402
11;401
12;406
13;419
14;431
15;439
0;446
1;451
2;446
3;438
4;432
5;427
6;422
7;418
8;416
9;414
10;413
11;415
12;417
13;423
14;436
15;451
0;463
1;470
2;472
3;471
4;465
5;454
6;441
7;436
8;432
9;428
10;425
11;424
12;425
13;432
14;448
15;463
0;472
1;472
2;465
3;451
4;439
5;425
6;418
7;418
8;409
9;396
10;384
11;379
12;372
13;372
14;362
15;350
0;350
1;355
2;362
3;364
4;370
5;376
6;388
7;395
8;399
9;415
10;435
11;448
12;468
13;499
14;527
15;550
0;579
1;611
2;643
3;675
4;705
5;721
6;726
7;726
8;714
9;696
10;671
11;639
12;604
13;568
14;528
15;485
0;451
1;425
2;402
3;388
4;382
5;377
6;372
7;368
8;361
9;355
10;347
11;338
12;333
13;334
14;336
15;341
0;352
1;364
2;373
3;376
4;383
5;392
6;400
7;405
8;408
9;408
10;404
11;401
12;399
13;399
14;405
15;415
0;426
1;431
2;440
3;451
4;473
5;491
6;495
7;494
8;508
9;516
10;520
11;516
12;517
13;526
14;533
15;533
0;533
1;534
2;536
3;538
4;540
5;545
6;548
7;548
8;543
9;537
10;532
11;527
12;521
13;516
14;510
15;508
0;509
1;511
2;516
3;526
4;532
5;538
6;545
7;552
8;558
9;560
10;559
11;557
12;551
13;545
14;543
15;543
0;539
1;537
2;539
3;546
4;555
5;556
6;559
7;566
8;572
9;574
10;575
11;575
12;571
13;569
14;565
15;558
0;551
1;552
2;557
3;561
4;569
5;577
6;581
7;591
8;599
9;597
10;596
11;597
12;593
13;584
14;589
15;602
0;616
1;623
2;629
3;626
4;614
5;609
6;608
7;601
8;596
9;600
10;615
11;627
12;630
13;646
14;663
15;664
0;647
1;620
2;594
3;582
4;588
5;592
6;597
7;598
8;601
9;604
10;603
11;600
12;596
13;590
14;582
15;575
0;567
1;560
2;556
3;551
4;551
5;553
6;560
7;567
8;570
9;573
10;575
11;573
12;572
13;567
14;557
15;546
0;537
1;529
2;521
3;516
4;515
5;515
6;515
7;520
8;524
9;529
10;535
11;537
12;539
13;538
14;534
15;522
0;511
1;500
2;491
3;485
4;480
5;476
6;479
7;491
8;502
9;510
10;517
11;522
12;521
13;522
14;524
15;524
0;518
1;511
2;503
3;493
4;485
5;476
6;473
7;471
8;483
9;496
10;508
11;520
12;532
13;534
14;534
15;530
0;526
1;528
2;528
3;524
4;517
5;522
6;528
7;531
8;532
9;529
10;526
11;530
12;538
13;540
14;534
15;529
0;523
1;513
2;504
3;499
4;497
5;499
6;498
7;487
8;477
9;476
10;483
11;486
12;491
13;499
14;502
15;499
0;497
1;494
2;479
3;468
4;461
5;455
6;450
7;443
8;436
9;438
10;450
11;460
12;464
13;470
14;476
15;476
0;473
1;469
2;459
3;448
4;440
5;429
6;420
7;417
8;413
9;413
10;419
11;425
12;432
13;439
14;444
15;443
0;444
1;450
2;444
3;431
4;422
5;415
6;411
7;415
8;425
9;427
10;419
11;417
12;419
13;419
14;423
15;430
0;432
1;433
2;449
3;474
4;472
5;464
6;452
7;440
8;429
9;423
10;423
11;421
12;420
13;425
14;432
15;450
0;462
1;459
2;458
3;454
4;446
5;441
6;435
7;421
8;409
9;403
10;400
11;406
12;414
13;414
14;413
15;417
0;420
1;419
2;414
3;408
4;397
5;380
6;363
7;349
8;335
9;325
10;319
11;320
12;327
13;340
14;354
15;369
0;390
1;412
2;430
3;451
4;471
5;487
6;499
7;514
8;531
9;551
10;577
11;603
12;630
13;664
14;697
15;721
0;732
1;735
2;728
3;708
4;684
5;648
6;606
7;560
8;509
9;455
10;408
11;372
12;346
13;330
14;327
15;332
0;339
1;350
2;367
3;376
4;378
5;373
6;363
7;357
8;370
9;395
10;420
11;423
12;422
13;424
14;420
15;410
0;401
1;397
2;406
3;419
4;422
5;424
6;433
7;441
8;439
9;432
10;433
11;436
12;436
13;440
14;449
15;467
0;483
1;491
2;500
3;511
4;515
5;514
6;518
7;522
8;524
9;524
10;522
11;517
12;511
13;508
14;507
15;511
0;522
1;533
2;538
3;545
4;550
5;548
6;547
7;548
8;544
9;541
10;538
11;535
12;530
13;528
14;530
15;532
0;534
1;541
2;549
3;556
4;564
5;569
6;569
7;567
8;563
9;560
10;562
11;569
12;576
13;583
14;600
15;605
0;598
1;600
2;597
3;584
4;572
5;567
6;566
7;566
8;562
9;559
10;560
11;560
12;553
13;543
14;538
15;550
0;575
1;595
2;606
3;611
4;617
5;624
6;626
7;631
8;638
9;637
10;632
11;624
12;617
13;608
14;603
15;602
0;601
1;600
2;598
3;605
4;611
5;613
6;621
7;629
8;637
9;642
10;642
11;636
12;624
13;609
14;595
15;585
0;580
1;583
2;583
3;583
4;589
5;597
6;608
7;616
8;621
9;620
10;617
11;609
12;600
13;589
14;582
15;579
0;577
1;571
2;566
3;561
4;560
5;559
6;559
7;559
8;564
9;579
10;593
11;599
12;599
13;594
14;588
15;564
0;537
1;521
2;515
3;509
4;506
5;510
6;517
7;526
8;535
9;541
10;541
11;538
12;534
13;527
14;520
15;514
0;507
1;501
2;499
3;499
4;504
5;509
6;515
7;518
8;521
9;527
10;525
11;524
12;528
13;525
14;518
15;512
0;508
1;505
2;503
3;499
4;495
5;495
6;505
7;521
8;544
9;556
10;551
11;545
12;544
13;542
14;547
15;544
0;534
1;523
2;513
3;508
4;507
5;499
6;494
7;507
8;523
9;534
10;539
11;543
12;562
13;591
14;589
15;565
0;544
1;526
2;511
3;501
4;498
5;496
6;490
7;490
8;496
9;506
10;516
11;524
12;523
13;518
14;513
15;505
0;493
1;481
2;468
3;458
4;455
5;458
6;462
7;464
8;471
9;477
10;483
11;489
12;490
13;482
14;474
15;470
0;464
1;454
2;447
3;440
4;433
5;432
6;429
7;426
8;428
9;436
10;441
11;448
12;457
13;469
14;478
15;482
0;496
1;502
2;486
3;462
4;446
5;437
6;428
7;415
8;406
9;412
10;423
11;426
12;430
13;438
14;459
15;484
0;500
1;496
2;476
3;454
4;445
5;437
6;433
7;429
8;426
9;430
10;438
11;446
12;452
13;459
14;469
15;474
0;472
1;467
2;457
3;446
4;436
5;423
6;412
7;413
8;412
9;407
10;403
11;401
12;397
13;398
14;401
15;404
0;403
1;396
2;386
3;375
4;361
5;353
6;347
7;349
8;357
9;364
10;376
11;398
12;426
13;455
14;483
15;511
0;534
1;556
2;579
3;598
4;621
5;649
6;685
7;718
8;740
9;744
10;731
11;713
12;695
13;676
14;661
15;640
0;612
1;573
2;527
3;482
4;432
5;395
6;366
7;336
8;313
9;308
10;329
11;348
12;370
13;390
14;402
15;419
0;428
1;428
2;425
3;423
4;415
5;399
6;385
7;371
8;361
9;365
10;376
11;389
12;401
13;416
14;428
15;433
0;446
1;468
2;480
3;487
4;487
5;479
6;466
7;457
8;453
9;450
10;451
11;454
12;460
13;466
14;479
15;493
0;512
1;528
2;535
3;533
4;530
5;532
6;530
7;524
8;522
9;521
10;518
11;518
12;521
13;523
14;528
15;539
0;547
1;558
2;566
3;570
4;572
5;572
6;572
7;567
8;557
9;552
10;548
11;547
12;547
13;547
14;549
15;558
0;566
1;568
2;570
3;569
4;561
5;568
6;589
7;613
8;629
9;621
10;603
11;586
12;569
13;563
14;570
15;577
0;586
1;594
2;598
3;599
4;598
5;593
6;586
7;580
8;576
9;576
10;575
11;573
12;570
13;573
14;575
15;576
0;582
1;584
2;592
3;605
4;619
5;623
6;622
7;620
8;620
9;616
10;609
11;597
12;595
13;599
14;604
15;606
0;609
1;618
2;628
3;639
4;648
5;651
6;648
7;643
8;639
9;626
10;616
11;611
12;603
13;598
14;600
15;602
0;602
1;602
2;606
3;610
4;615
5;625
6;627
7;622
8;610
9;598
10;589
11;584
12;581
13;574
14;568
15;568
0;566
1;564
2;563
3;561
4;564
5;572
6;581
7;583
8;578
9;571
10;566
11;561
12;556
13;550
14;546
15;541
0;536
1;529
2;523
3;527
4;534
5;540
6;544
7;543
8;538
9;538
10;548
11;558
12;556
13;556
14;545
15;533
0;519
1;508
2;498
3;499
4;527
5;553
6;580
7;593
8;591
9;583
10;577
11;571
12;552
13;535
14;521
15;510
0;499
1;492
2;488
3;491
4;504
5;516
6;528
7;540
8;550
9;555
10;552
11;551
12;546
13;540
14;538
15;533
0;528
1;526
2;523
3;518
4;519
5;524
6;526
7;531
8;541
9;548
10;549
11;547
12;542
13;531
14;518
15;515
0;512
1;509
2;506
3;503
4;501
5;505
6;511
7;519
8;526
9;527
10;524
11;519
12;515
13;508
14;495
15;482
0;468
1;462
2;453
3;451
4;458
5;462
6;463
7;467
8;478
9;490
10;494
11;492
12;480
13;471
14;457
15;444
0;448
1;464
2;479
3;492
4;499
5;488
6;476
7;468
8;461
9;460
10;456
11;449
12;437
13;428
14;429
15;432
0;428
1;433
2;446
3;450
4;447
5;443
6;436
7;432
8;431
9;437
10;443
11;444
12;446
13;448
14;447
15;445
0;444
1;445
2;444
3;435
4;424
5;419
6;417
7;421
8;429
9;437
10;444
11;457
12;468
13;470
14;470
15;466
0;459
1;447
2;432
3;419
4;406
5;396
6;390
7;385
8;385
9;383
10;382
11;379
12;382
13;385
14;387
15;386
0;384
1;383
2;379
3;375
4;370
5;371
6;379
7;387
8;402
9;424
10;449
11;478
12;505
13;532
14;560
15;585
0;614
1;634
2;647
3;671
4;697
5;710
6;718
7;716
8;713
9;698
10;674
11;644
12;606
13;564
14;518
15;470
0;429
1;401
2;376
3;357
4;344
5;338
6;334
7;330
8;332
9;334
10;337
11;344
12;352
13;358
14;366
15;374
0;382
1;391
2;392
3;395
4;399
5;398
6;404
7;413
8;420
9;423
10;406
11;391
12;388
13;395
14;404
15;412
0;415
1;423
2;435
3;443
4;442
5;438
6;435
7;443
8;454
9;457
10;463
11;464
12;468
13;480
14;494
15;505
0;514
1;515
2;515
3;518
4;510
5;504
6;501
7;497
8;492
9;488
10;489
11;489
12;491
13;496
14;500
15;508
0;519
1;530
2;535
3;534
4;527
5;515
6;501
7;496
8;494
9;491
10;490
11;490
12;492
13;501
14;511
15;522
0;536
1;545
2;550
3;553
4;557
5;556
6;549
7;545
8;540
9;530
10;527
11;527
12;532
13;539
14;542
15;549
0;557
1;563
2;571
3;575
4;577
5;575
6;568
7;562
8;561
9;554
10;550
11;559
12;564
13;572
14;583
15;600
0;618
1;630
2;645
3;653
4;650
5;642
6;627
7;608
8;601
9;597
10;593
11;585
12;582
13;576
14;574
15;583
0;595
1;607
2;621
3;626
4;622
5;612
6;601
7;585
8;572
9;561
10;553
11;545
12;539
13;539
14;540
15;541
0;546
1;552
2;557
3;563
4;564
5;559
6;554
7;551
8;547
9;545
10;543
11;536
12;527
13;516
14;507
15;505
0;513
1;521
2;528
3;533
4;536
5;535
6;531
7;527
8;521
9;512
10;505
11;500
12;493
13;487
14;486
15;481
0;483
1;494
2;507
3;515
4;522
5;529
6;534
7;537
8;537
9;531
10;523
11;518
12;513
13;510
14;510
15;510
0;507
1;512
2;521
3;523
4;519
5;520
6;520
7;521
8;533
9;548
10;551
11;541
12;534
13;524
14;508
15;506
0;508
1;516
2;536
3;558
4;570
5;578
6;581
7;575
8;573
9;569
10;563
11;559
12;548
13;535
14;530
15;528
0;528
1;531
2;531
3;534
4;531
5;531
6;533
7;531
8;523
9;517
10;515
11;509
12;498
13;488
14;482
15;478
0;478
1;477
2;476
3;478
4;487
5;494
6;499
7;502
8;498
9;494
10;492
11;487
12;480
13;472
14;462
15;453
0;444
1;435
2;427
3;423
4;425
5;429
6;435
7;443
8;446
9;442
10;439
11;436
12;432
13;426
14;427
15;425
0;421
1;423
2;428
3;433
4;439
5;448
6;454
7;457
8;463
9;464
10;457
11;446
12;435
13;423
14;415
15;428
0;447
1;458
2;454
3;443
4;436
5;436
6;436
7;437
8;448
9;463
10;470
11;467
12;468
13;456
14;443
15;433
0;428
1;425
2;418
3;415
4;416
5;421
6;430
7;435
8;443
9;447
10;446
11;441
12;440
13;442
14;439
15;432
0;422
1;408
2;391
3;375
4;364
5;357
6;355
7;359
8;360
9;365
10;368
11;370
12;371
13;372
14;376
15;384
0;394
1;412
2;433
3;451
4;472
5;494
6;514
7;540
8;570
9;596
10;626
11;655
12;677
13;694
14;704
15;715
0;711
1;693
2;663
3;625
4;588
5;552
6;518
7;489
8;455
9;415
10;387
11;371
12;356
13;338
14;326
15;326
0;336
1;340
2;337
3;331
4;323
5;323
6;323
7;319
8;322
9;331
10;342
11;359
12;377
13;388
14;391
15;393
0;397
1;393
2;390
3;394
4;395
5;396
6;396
7;400
8;409
9;422
10;436
11;444
12;453
13;467
14;477
15;484
0;494
1;498
2;498
3;501
4;503
5;496
6;490
7;489
8;489
9;494
10;502
11;510
12;507
13;513
14;526
15;529
0;529
1;534
2;535
3;526
4;521
5;520
6;517
7;515
8;519
9;519
10;514
11;505
12;502
13;521
14;554
15;580
0;591
1;589
2;571
3;555
4;550
5;544
6;529
7;522
8;522
9;518
10;513
11;518
12;527
13;534
14;544
15;551
0;551
1;547
2;541
3;535
4;531
5;537
6;541
7;535
8;534
9;542
10;547
11;545
12;551
13;561
14;574
15;580
0;575
1;564
2;554
3;549
4;543
5;539
6;544
7;550
8;557
9;568
10;580
11;588
12;594
13;606
14;611
15;615
0;618
1;613
2;606
3;599
4;591
5;580
6;568
7;561
8;556
9;552
10;551
11;551
12;555
13;564
14;573
15;578
0;578
1;578
2;570
3;571
4;587
5;601
6;583
7;560
8;537
9;519
10;508
11;515
12;516
13;519
14;534
15;546
0;547
1;543
2;536
3;533
4;538
5;540
6;541
7;541
8;536
9;538
10;536
11;519
12;502
13;494
14;490
15;483
0;479
1;480
2;486
3;496
4;505
5;505
6;497
7;488
8;480
9;469
10;467
11;467
12;469
13;470
14;475
15;484
0;490
1;495
2;504
3;514
4;518
5;519
6;522
7;521
8;515
9;512
10;506
11;503
12;504
13;505
14;499
15;494
0;497
1;506
2;511
3;517
4;521
5;520
6;519
7;520
8;520
9;523
10;531
11;541
12;550
13;560
14;567
15;560
0;553
1;550
2;551
3;556
4;559
5;551
6;550
7;557
8;563
9;565
10;559
11;545
12;534
13;532
14;531
15;533
0;534
1;538
2;546
3;557
4;556
5;547
6;536
7;526
8;519
9;512
10;506
11;503
12;495
13;486
14;479
15;475
0;476
1;483
2;488
3;493
4;496
5;501
6;500
7;498
8;497
9;491
10;480
11;467
12;460
13;452
14;442
15;435
0;431
1;433
2;442
3;447
4;448
5;454
6;460
7;462
8;459
9;457
10;452
11;446
12;448
13;448
14;446
15;444
0;443
1;442
2;440
3;444
4;450
5;456
6;465
7;476
8;479
9;475
10;469
11;460
12;447
13;440
14;433
15;428
0;420
1;421
2;432
3;446
4;455
5;458
6;463
7;475
8;482
9;490
10;495
11;489
12;481
13;474
14;462
15;447
0;445
1;451
2;462
3;471
4;479
5;479
6;473
7;468
8;467
9;465
10;454
11;439
12;426
13;411
14;393
15;375
0;356
1;345
2;346
3;353
4;364
5;375
6;385
7;396
8;404
9;414
10;424
11;427
12;435
13;445
14;451
15;463
0;482
1;498
2;517
3;539
4;568
5;602
6;639
7;675
8;711
9;739
10;753
11;753
12;742
13;718
14;686
15;650
0;610
1;566
2;519
3;470
4;424
5;391
6;371
7;364
8;364
9;363
10;365
11;363
12;364
13;365
14;361
15;356
0;357
1;361
2;373
3;396
4;408
5;406
6;396
7;388
8;398
9;416
10;424
11;430
12;432
13;432
14;424
15;415
0;419
1;435
2;454
3;470
4;478
5;481
6;479
7;489
8;499
9;506
10;517
11;524
12;528
13;527
14;529
15;527
0;524
1;527
2;533
3;532
4;526
5;523
6;526
7;524
8;532
9;537
10;543
11;551
12;556
13;556
14;555
15;558
0;556
1;547
2;539
3;535
4;534
5;542
6;554
7;569
8;578
9;583
10;584
11;580
12;583
13;590
14;592
15;592
0;590
1;587
2;587
3;583
4;571
5;567
6;566
7;567
8;574
9;579
10;584
11;590
12;596
13;599
14;599
15;595
0;587
1;576
2;563
3;549
4;542
5;548
6;557
7;561
8;562
9;567
10;575
11;583
12;589
13;594
14;600
15;604
0;613
1;632
2;649
3;639
4;617
5;595
6;595
7;604
8;614
9;615
10;615
11;618
12;623
13;628
14;634
15;638
0;637
1;646
2;647
3;632
4;622
5;614
6;601
7;591
8;592
9;597
10;609
11;620
12;623
13;624
14;632
15;639
0;633
1;623
2;611
3;605
4;601
5;593
6;582
7;569
8;563
9;564
10;564
11;569
12;578
13;583
14;584
15;585
0;581
1;572
2;570
3;567
4;553
5;540
6;531
7;520
8;513
9;512
10;513
11;518
12;526
13;534
14;536
15;537
0;538
1;535
2;535
3;543
4;552
5;559
6;564
7;558
8;546
9;539
10;541
11;539
12;529
13;527
14;525
15;525
0;527
1;530
2;539
3;547
4;540
5;536
6;528
7;523
8;529
9;535
10;536
11;535
12;534
13;532
14;536
15;528
0;521
1;511
2;499
3;487
4;486
5;486
6;482
7;478
8;474
9;473
10;470
11;475
12;488
13;496
14;506
15;519
0;529
1;535
2;536
3;535
4;531
5;520
6;505
7;491
8;483
9;479
10;473
11;470
12;476
13;477
14;479
15;487
0;496
1;502
2;507
3;506
4;506
5;505
6;503
7;503
8;497
9;489
10;473
11;458
12;461
13;463
14;456
15;454
0;461
1;472
2;486
3;501
4;503
5;504
6;503
7;494
8;488
9;485
10;485
11;480
12;459
13;435
14;420
15;406
0;398
1;401
2;416
3;429
4;430
5;436
6;437
7;440
8;450
9;448
10;440
11;441
12;441
13;433
14;423
15;413
0;407
1;412
2;415
3;411
4;413
5;412
6;407
7;402
8;402
9;396
10;386
11;386
12;389
13;391
14;391
15;391
0;393
1;397
2;401
3;407
4;412
5;421
6;429
7;428
8;426
9;423
10;419
11;411
12;405
13;397
14;393
15;391
0;389
1;391
2;396
3;400
4;403
5;406
6;403
7;395
8;385
9;377
10;363
11;347
12;332
13;318
14;304
15;299
0;298
1;297
2;303
3;313
4;323
5;338
6;359
7;376
8;391
9;415
10;441
11;462
12;479
13;496
14;510
15;524
0;539
1;554
2;583
3;629
4;678
5;711
6;736
7;745
8;739
9;726
10;703
11;667
12;627
13;583
14;528
15;475
0;422
1;378
2;345
3;317
4;299
5;285
6;271
7;256
8;254
9;268
10;288
11;312
12;330
13;339
14;344
15;348
0;352
1;356
2;361
3;365
4;371
5;379
6;386
7;389
8;396
9;404
10;411
11;420
12;425
13;421
14;416
15;408
0;401
1;401
2;406
3;415
4;423
5;433
6;450
7;463
8;473
9;487
10;498
11;505
12;508
13;503
14;493
15;487
0;484
1;481
2;480
3;484
4;487
5;487
6;493
7;501
8;509
9;521
10;524
11;526
12;531
13;531
14;528
15;520
0;517
1;511
2;504
3;498
4;496
5;493
6;498
7;508
8;519
9;528
10;537
11;543
12;544
13;542
14;537
15;531
0;528
1;520
2;520
3;524
4;526
5;527
6;527
7;530
8;536
9;539
10;542
11;543
12;543
13;545
14;550
15;553
0;551
1;549
2;545
3;544
4;547
5;552
6;556
7;559
8;565
9;566
10;569
11;575
12;575
13;577
14;585
15;585
0;579
1;576
2;572
3;563
4;552
5;556
6;564
7;568
8;571
9;577
10;586
11;597
12;604
13;594
14;589
15;595
0;599
1;588
2;579
3;575
4;561
5;550
6;546
7;543
8;547
9;556
10;565
11;571
12;575
13;575
14;575
15;573
0;572
1;568
2;558
3;547
4;544
5;540
6;532
7;526
8;519
9;515
10;518
11;520
12;521
13;527
14;530
15;529
0;527
1;522
2;511
3;501
4;491
5;481
6;475
7;473
8;472
9;471
10;472
11;479
12;486
13;492
14;496
15;496
0;498
1;501
2;506
3;510
4;513
5;510
6;498
7;493
8;478
9;463
10;458
11;459
12;463
13;467
14;474
15;478
0;476
1;468
2;463
3;470
4;472
5;468
6;464
7;455
8;442
9;437
10;435
11;434
12;441
13;451
14;457
15;460
0;465
1;468
2;473
3;474
4;470
5;461
6;451
7;443
8;444
9;450
10;456
11;455
12;455
13;463
14;466
15;471
0;475
1;477
2;478
3;476
4;472
5;463
6;455
7;448
8;435
9;424
10;419
11;419
12;423
13;430
14;438
15;446
0;452
1;457
2;452
3;449
4;443
5;429
6;419
7;413
8;414
9;407
10;408
11;414
12;416
13;420
14;420
15;421
0;427
1;430
2;425
3;421
4;415
5;403
6;388
7;387
8;403
9;413
10;433
11;455
12;458
13;450
14;433
15;415
0;406
1;401
2;401
3;397
4;394
5;387
6;380
7;380
8;379
9;371
10;359
11;352
12;345
13;344
14;351
15;361
0;366
1;373
2;385
3;398
4;403
5;404
6;402
7;399
8;395
9;386
10;373
11;366
12;364
13;368
14;374
15;383
0;392
1;399
2;407
3;412
4;412
5;410
6;408
7;408
8;404
9;397
10;391
11;382
12;373
13;365
14;359
15;356
0;357
1;360
2;363
3;368
4;368
5;363
6;354
7;348
8;339
9;328
10;318
11;305
12;292
13;281
14;271
15;271
0;283
1;309
2;340
3;361
4;383
5;415
6;444
7;473
8;499
9;525
10;545
11;568
12;589
13;610
14;624
15;642
0;667
1;691
2;719
3;726
4;713
5;687
6;653
7;635
8;606
9;567
10;518
11;463
12;412
13;365
14;329
15;306
0;286
1;274
2;273
3;272
4;271
5;276
6;286
7;297
8;308
9;319
10;322
11;323
12;327
13;324
14;321
15;323
0;330
1;338
2;347
3;360
4;372
5;381
6;390
7;401
8;409
9;416
10;422
11;424
12;427
13;427
14;425
15;428
0;435
1;441
2;445
3;448
4;457
5;465
6;477
7;488
8;494
9;496
10;498
11;498
12;494
13;490
14;485
15;479
0;482
1;490
2;491
3;492
4;499
5;508
6;508
7;509
8;515
9;521
10;535
11;543
12;535
13;521
14;515
15;513
0;513
1;517
2;517
3;516
4;515
5;520
6;531
7;542
8;551
9;563
10;585
11;618
12;632
13;616
14;586
15;557
0;536
1;524
2;520
3;522
4;523
5;524
6;532
7;539
8;547
9;558
10;564
11;568
12;575
13;580
14;575
15;570
0;567
1;560
2;556
3;559
4;564
5;569
6;582
7;594
8;603
9;612
10;620
11;621
12;626
13;628
14;623
15;616
0;609
1;601
2;592
3;585
4;589
5;592
6;596
7;605
8;615
9;625
10;632
11;633
12;630
13;623
14;622
15;618
0;610
1;605
2;599
3;598
4;601
5;603
6;608
7;615
8;628
9;641
10;653
11;660
12;658
13;650
14;638
15;615
0;593
1;580
2;574
3;571
4;579
5;597
6;608
7;611
8;607
9;604
10;605
11;606
12;598
13;585
14;581
15;579
0;566
1;553
2;545
3;537
4;528
5;521
6;518
7;515
8;519
9;533
10;540
11;545
12;552
13;557
14;558
15;560
0;559
1;551
2;541
3;534
4;525
5;516
6;508
7;507
8;513
9;524
10;533
11;535
12;539
13;543
14;544
15;542
0;539
1;538
2;532
3;521
4;514
5;509
6;507
7;507
8;506
9;513
10;526
11;535
12;541
13;545
14;554
15;561
0;569
1;576
2;578
3;568
4;551
5;535
6;523
7;524
8;529
9;532
10;542
11;551
12;554
13;558
14;560
15;563
0;561
1;556
2;553
3;549
4;546
5;540
6;531
7;526
8;537
9;563
10;594
11;610
12;608
13;605
14;611
15;601
0;578
1;556
2;541
3;527
4;510
5;493
6;482
7;475
8;470
9;472
10;472
11;477
12;483
13;488
14;492
15;491
0;488
1;477
2;476
3;479
4;477
5;473
6;468
7;459
8;448
9;446
10;444
11;435
12;436
13;444
14;452
15;459
0;466
1;475
2;476
3;475
4;470
5;460
6;451
7;445
8;438
9;437
10;440
11;445
12;446
13;453
14;463
15;471
0;479
1;487
2;491
3;492
4;491
5;487
6;479
7;469
8;458
9;445
10;435
11;432
12;430
13;431
14;436
15;443
0;449
1;452
2;462
3;474
4;484
5;488
6;482
7;476
8;469
9;464
10;456
11;454
12;460
13;476
14;489
15;487
0;482
1;471
2;461
3;471
4;486
5;485
6;474
7;443
8;414
9;391
10;377
11;375
12;380
13;384
14;390
15;397
0;411
1;437
2;463
3;490
4;518
5;547
6;577
7;598
8;608
9;618
10;628
11;635
12;646
13;667
14;693
15;717
0;735
1;747
2;752
3;746
4;729
5;702
6;670
7;629
8;577
9;523
10;471
11;427
12;397
13;375
14;362
15;357
0;358
1;361
2;366
3;371
4;378
5;383
6;388
7;396
8;401
9;404
10;410
11;411
12;408
13;404
14;402
15;400
0;402
1;408
2;419
3;427
4;439
5;454
6;466
7;477
8;482
9;478
10;466
11;457
12;458
13;459
14;468
15;480
0;488
1;496
2;510
3;524
4;536
5;547
6;554
7;558
8;560
9;564
10;565
11;565
12;564
13;558
14;553
15;555
0;561
1;568
2;574
3;580
4;591
5;596
6;600
7;605
8;609
9;613
10;615
11;627
12;632
13;627
14;613
15;602
0;595
1;591
2;584
3;578
4;579
5;579
6;585
7;602
8;611
9;607
10;603
11;600
12;599
13;593
14;585
15;580
0;583
1;581
2;576
3;576
4;585
5;596
6;608
7;614
8;611
9;605
10;607
11;604
12;597
13;593
14;596
15;597
0;595
1;593
2;597
3;605
4;619
5;633
6;645
7;655
8;659
9;656
10;649
11;641
12;633
13;624
14;618
15;612
0;609
1;610
2;618
3;624
4;632
5;641
6;647
7;654
8;659
9;664
10;663
11;660
12;657
13;652
14;650
15;650
0;651
1;652
2;644
3;632
4;622
5;620
6;625
7;632
8;644
9;650
10;648
11;640
12;632
13;624
14;618
15;620
0;614
1;599
2;592
3;592
4;595
5;595
6;592
7;593
8;599
9;617
10;633
11;639
12;631
13;619
14;611
15;592
0;578
1;561
2;544
3;536
4;531
5;527
6;529
7;534
8;536
9;538
10;547
11;553
12;555
13;556
14;555
15;551
0;545
1;538
2;534
3;527
4;529
5;526
6;522
7;524
8;535
9;545
10;552
11;554
12;553
13;548
14;550
15;548
0;544
1;535
2;525
3;519
4;515
5;511
6;510
7;514
8;521
9;527
10;536
11;545
12;554
13;559
14;562
15;563
0;559
1;553
2;554
3;556
4;555
5;559
6;565
7;567
8;572
9;576
10;580
11;581
12;582
13;587
14;597
15;601
0;588
1;570
2;563
3;557
4;542
5;527
6;517
7;515
8;518
9;522
10;526
11;530
12;535
13;538
14;538
15;533
0;530
1;526
2;519
3;516
4;512
5;501
6;489
7;493
8;498
9;508
10;516
11;519
12;515
13;510
14;511
15;507
0;505
1;509
2;507
3;496
4;488
5;480
6;472
7;469
8;466
9;462
10;462
11;467
12;470
13;473
14;473
15;470
0;471
1;472
2;467
3;455
4;447
5;441
6;435
7;436
8;442
9;446
10;444
11;449
12;457
13;462
14;469
15;475
0;476
1;475
2;470
3;463
4;456
5;449
6;440
7;434
8;435
9;438
10;443
11;445
12;449
13;455
14;461
15;466
0;473
1;483
2;491
3;488
4;476
5;464
6;457
7;451
8;446
9;446
10;448
11;451
12;456
13;464
14;471
15;470
0;467
1;451
2;430
3;412
4;394
5;381
6;372
7;370
8;373
9;377
10;388
11;390
12;378
13;382
14;389
15;396
0;410
1;424
2;439
3;457
4;470
5;474
6;488
7;504
8;518
9;531
10;550
11;577
12;605
13;633
14;664
15;699
0;726
1;741
2;743
3;737
4;722
5;699
6;659
7;618
8;578
9;531
10;485
11;448
12;418
13;388
14;369
15;363
0;367
1;371
2;374
3;378
4;384
5;389
6;385
7;373
8;361
9;354
10;351
11;352
12;362
13;377
14;390
15;398
0;400
1;403
2;409
3;409
4;406
5;410
6;415
7;411
8;407
9;403
10;395
11;387
12;392
13;403
14;414
15;428
0;449
1;467
2;480
3;493
4;505
5;511
6;516
7;523
8;525
9;520
10;509
11;492
12;473
13;467
14;476
15;488
0;501
1;519
2;547
3;564
4;572
5;582
6;587
7;591
8;589
9;575
10;563
11;556
12;543
13;536
14;538
15;539
0;535
1;528
2;520
3;517
4;524
5;532
6;535
7;534
8;534
9;536
10;534
11;534
12;534
13;536
14;536
15;536
0;543
1;551
2;560
3;565
4;567
5;567
6;565
7;565
8;566
9;566
10;566
11;563
12;557
13;556
14;559
15;564
0;570
1;572
2;576
3;581
4;583
5;585
6;586
7;587
8;591
9;591
10;590
11;586
12;583
13;579
14;571
15;571
0;579
1;589
2;598
3;609
4;615
5;620
6;628
7;638
8;638
9;637
10;636
11;631
12;626
13;627
14;630
15;627
0;620
1;611
2;597
3;588
4;586
5;585
6;598
7;612
8;625
9;631
10;636
11;633
12;617
13;597
14;585
15;582
0;583
1;583
2;580
3;573
4;572
5;577
6;581
7;583
8;585
9;588
10;586
11;578
12;570
13;563
14;553
15;541
0;531
1;524
2;526
3;535
4;543
5;552
6;554
7;551
8;551
9;548
10;541
11;537
12;534
13;525
14;512
15;501
0;489
1;479
2;472
3;473
4;484
5;506
6;528
7;544
8;555
9;565
10;568
11;566
12;564
13;559
14;550
15;537
0;526
1;518
2;509
3;502
4;495
5;494
6;502
7;515
8;528
9;543
10;551
11;555
12;560
13;563
14;562
15;553
0;543
1;540
2;542
3;552
4;564
5;569
6;565
7;567
8;572
9;571
10;568
11;567
12;569
13;572
14;563
15;552
0;545
1;550
2;551
3;546
4;546
5;548
6;546
7;546
8;547
9;552
10;556
11;562
12;570
13;578
14;576
15;566
0;550
1;534
2;520
3;513
4;511
5;508
6;504
7;502
8;506
9;511
10;515
11;516
12;521
13;523
14;517
15;508
0;496
1;488
2;480
3;466
4;455
5;449
6;450
7;456
8;464
9;473
10;481
11;490
12;499
13;507
14;506
15;500
0;487
1;465
2;449
3;440
4;429
5;422
6;430
7;440
8;450
9;463
10;481
11;489
12;495
13;502
14;505
15;501
0;499
1;498
2;491
3;481
4;473
5;468
6;471
7;480
8;483
9;486
10;492
11;497
12;504
13;510
14;512
15;509
0;507
1;510
2;515
3;515
4;517
5;515
6;524
7;520
8;500
9;488
10;490
11;511
12;518
13;513
14;512
15;502
0;486
1;473
2;460
3;448
4;443
5;436
6;420
7;397
8;384
9;380
10;381
11;383
12;388
13;392
14;400
15;410
0;422
1;439
2;463
3;486
4;503
5;521
6;535
7;546
8;563
9;582
10;605
11;638
12;679
13;720
14;752
15;767
0;766
1;759
2;748
3;732
4;712
5;685
6;652
7;605
8;553
9;509
10;473
11;443
12;423
13;411
14;402
15;399
0;401
1;399
2;391
3;382
4;380
5;380
6;376
7;372
8;373
9;380
10;394
11;401
12;407
13;415
14;424
15;432
0;439
1;454
2;466
3;475
4;484
5;491
6;490
7;484
8;478
9;473
10;478
11;482
12;482
13;486
14;491
15;496
0;510
1;535
2;561
3;577
4;580
5;572
6;554
7;539
8;528
9;519
10;513
11;511
12;513
13;519
14;531
15;542
0;551
1;563
2;569
3;570
4;571
5;571
6;569
7;564
8;563
9;562
10;555
11;550
12;551
13;551
14;554
15;556
0;558
1;559
2;564
3;572
4;572
5;574
6;574
7;570
8;565
9;563
10;559
11;553
12;554
13;559
14;561
15;566
0;577
1;590
2;600
3;609
4;612
5;609
6;609
7;608
8;603
9;595
10;591
11;588
12;585
13;587
14;593
15;594
0;600
1;612
2;624
3;636
4;648
5;649
6;648
7;645
8;638
9;629
10;625
11;623
12;619
13;620
14;628
15;632
0;635
1;640
2;647
3;652
4;656
5;663
6;666
7;667
8;669
9;663
10;652
11;647
12;636
13;625
14;622
15;620
0;614
1;612
2;609
3;606
4;602
5;599
6;614
7;636
8;654
9;664
10;654
11;631
12;605
13;577
14;558
15;548
0;541
1;535
2;537
3;548
4;559
5;569
6;577
7;579
8;577
9;571
10;563
11;551
12;545
13;540
14;529
15;522
0;522
1;523
2;525
3;532
4;539
5;541
6;542
7;542
8;539
9;533
10;530
11;524
12;517
13;511
14;504
15;499
0;496
1;496
2;495
3;496
4;496
5;500
6;510
7;525
8;533
9;533
10;531
11;528
12;521
13;513
14;509
15;502
0;501
1;502
2;497
3;492
4;495
5;505
6;517
7;527
8;529
9;527
10;524
11;522
12;518
13;518
14;520
15;514
0;504
1;498
2;495
3;493
4;491
5;497
6;507
7;520
8;536
9;543
10;550
11;556
12;552
13;538
14;521
15;512
0;510
1;508
2;510
3;511
4;512
5;508
6;504
7;498
8;504
9;509
10;509
11;505
12;497
13;489
14;483
15;479
0;475
1;466
2;459
3;454
4;449
5;443
6;437
7;436
8;441
9;449
10;452
11;444
12;435
13;429
14;417
15;407
0;401
1;393
2;386
3;386
4;397
5;405
6;409
7;411
8;415
9;417
10;418
11;416
12;408
13;403
14;401
15;398
0;398
1;393
2;383
3;377
4;375
5;376
6;381
7;386
8;393
9;402
10;408
11;406
12;402
13;403
14;405
15;403
0;396
1;388
2;380
3;379
4;383
5;385
6;389
7;388
8;392
9;396
10;408
11;415
12;414
13;414
14;415
15;413
0;409
1;408
2;411
3;421
4;434
5;436
6;436
7;436
8;436
9;438
10;440
11;439
12;438
13;436
14;429
15;421
0;410
1;395
2;377
3;357
4;341
5;329
6;322
7;319
8;316
9;320
10;334
11;349
12;366
13;380
14;395
15;407
0;411
1;417
2;428
3;440
4;453
5;468
6;487
7;511
8;536
9;565
10;599
11;635
12;668
13;702
14;729
15;736
0;734
1;727
2;709
3;683
4;657
5;627
6;590
7;543
8;500
9;458
10;422
11;400
12;386
13;375
14;371
15;368
0;367
1;361
2;351
3;341
4;334
5;330
6;335
7;343
8;350
9;356
10;364
11;376
12;388
13;398
14;407
15;417
0;423
1;428
2;433
3;434
4;428
5;423
6;420
7;424
8;440
9;456
10;466
11;476
12;494
13;509
14;516
15;527
0;535
1;536
2;542
3;547
4;549
5;550
6;551
7;549
8;547
9;546
10;554
11;564
12;571
13;575
14;583
15;589
0;600
1;606
2;603
3;599
4;594
5;583
6;569
7;556
8;549
9;553
10;566
11;576
12;586
13;597
14;613
15;625
0;634
1;642
2;641
3;630
4;619
5;611
6;610
7;615
8;620
9;622
10;628
11;635
12;642
13;639
14;631
15;624
0;620
1;620
2;624
3;623
4;621
5;619
6;618
7;614
8;613
9;615
10;615
11;616
12;619
13;626
14;638
15;646
0;650
1;661
2;674
3;685
4;685
5;683
6;678
7;670
8;659
9;653
10;653
11;652
12;654
13;657
14;658
15;664
0;670
1;673
2;679
3;682
4;680
5;678
6;678
7;676
8;673
9;668
10;662
11;654
12;650
13;655
14;659
15;660
0;667
1;675
2;675
3;680
4;688
5;682
6;670
7;665
8;657
9;648
10;648
11;649
12;649
13;652
14;654
15;648
0;648
1;655
2;656
3;658
4;658
5;650
6;640
7;631
8;622
9;615
10;612
11;610
12;613
13;612
14;608
15;606
0;607
1;611
2;617
3;618
4;614
5;613
6;616
7;610
8;600
9;590
10;581
11;574
12;567
13;567
14;567
15;568
0;571
1;577
2;583
3;590
4;594
5;596
6;593
7;589
8;592
9;593
10;583
11;573
12;568
13;565
14;558
15;553
0;555
1;555
2;560
3;568
4;573
5;579
6;584
7;584
8;581
9;575
10;568
11;559
12;555
13;552
14;552
15;553
0;556
1;558
2;561
3;571
4;577
5;581
6;591
7;605
8;617
9;617
10;612
11;611
12;608
13;599
14;590
15;580
0;573
1;568
2;566
3;573
4;579
5;580
6;584
7;585
8;579
9;569
10;577
11;586
12;574
13;559
14;549
15;534
0;519
1;516
2;518
3;517
4;520
5;523
6;524
7;529
8;539
9;546
10;549
11;547
12;540
13;530
14;521
15;513
0;506
1;501
2;500
3;499
4;496
5;499
6;505
7;509
8;515
9;519
10;517
11;513
12;510
13;500
14;488
15;485
0;484
1;482
2;478
3;476
4;475
5;477
6;483
7;491
8;498
9;504
10;507
11;503
12;503
13;502
14;499
15;492
0;480
1;469
2;467
3;475
4;486
5;496
6;506
7;512
8;512
9;508
10;506
11;506
12;507
13;510
14;508
15;502
0;494
1;490
2;491
3;498
4;510
5;519
6;527
7;527
8;526
9;514
10;506
11;497
12;484
13;476
14;470
15;459
0;443
1;429
2;415
3;399
4;387
5;380
6;378
7;382
8;393
9;407
10;416
11;425
12;434
13;444
14;453
15;461
0;476
1;496
2;515
3;534
4;551
5;570
6;590
7;611
8;636
9;666
10;698
11;733
12;766
13;784
14;785
15;776
0;763
1;744
2;721
3;688
4;647
5;602
6;558
7;510
8;469
9;439
10;416
11;397
12;383
13;376
14;376
15;378
0;378
1;368
2;358
3;353
4;350
5;351
6;360
7;371
8;378
9;390
10;403
11;409
12;414
13;422
14;429
15;432
0;433
1;431
2;426
3;420
4;417
5;414
6;416
7;428
8;443
9;458
10;476
11;495
12;507
13;519
14;530
15;534
0;531
1;529
2;525
3;518
4;515
5;511
6;504
7;502
8;506
9;515
10;528
11;539
12;547
13;557
14;568
15;574
0;571
1;573
2;573
3;563
4;551
5;540
6;531
7;527
8;531
9;539
10;552
11;564
12;574
13;583
14;585
15;583
0;577
1;571
2;563
3;555
4;546
5;539
6;535
7;530
8;527
9;529
10;535
11;542
12;552
13;560
14;562
15;566
0;571
1;572
2;569
3;565
4;561
5;556
6;553
7;552
8;551
9;551
10;553
11;554
12;559
13;569
14;575
15;579
0;587
1;593
2;596
3;602
4;605
5;599
6;593
7;592
8;595
9;601
10;607
11;614
12;619
13;613
14;605
15;603
0;606
1;611
2;615
3;615
4;620
5;621
6;614
7;602
8;586
9;571
10;561
11;563
12;577
13;598
14;627
15;654
0;662
1;657
2;644
3;626
4;610
5;599
6;587
7;574
8;567
9;561
10;553
11;550
12;551
13;552
14;557
15;563
0;564
1;563
2;566
3;569
4;566
5;559
6;551
7;539
8;524
9;513
10;503
11;492
12;487
13;486
14;490
15;502
0;511
1;515
2;518
3;521
4;522
5;518
6;515
7;512
8;504
9;494
10;485
11;479
12;476
13;480
14;492
15;504
0;521
1;529
2;520
3;505
4;498
5;498
6;500
7;500
8;496
9;488
10;488
11;490
12;492
13;489
14;483
15;480
0;482
1;488
2;497
3;504
4;512
5;519
6;525
7;521
8;519
9;512
10;502
11;497
12;493
13;484
14;482
15;481
0;479
1;481
2;487
3;492
4;500
5;507
6;513
7;516
8;515
9;512
10;504
11;498
12;492
13;486
14;482
15;480
0;475
1;476
2;488
3;502
4;512
5;515
6;516
7;516
8;513
9;506
10;492
11;483
12;479
13;472
14;465
15;462
0;463
1;468
2;470
3;476
4;481
5;486
6;495
7;501
8;496
9;488
10;481
11;471
12;463
13;460
14;458
15;455
0;453
1;449
2;446
3;447
4;449
5;448
6;450
7;456
8;458
9;451
10;444
11;438
12;432
13;428
14;422
15;417
0;415
1;417
2;417
3;428
4;457
5;489
6;499
7;496
8;484
9;472
10;463
11;455
12;445
13;432
14;426
15;422
0;417
1;412
2;410
3;414
4;419
5;423
6;424
7;423
8;424
9;434
10;457
11;492
12;514
13;509
14;477
15;438
0;400
1;371
2;357
3;349
4;349
5;356
6;368
7;379
8;389
9;398
10;399
11;394
12;390
13;382
14;369
15;356
0;343
1;332
2;324
3;316
4;311
5;309
6;311
7;315
8;319
9;327
10;334
11;335
12;336
13;339
14;343
15;348
0;364
1;391
2;425
3;455
4;481
5;508
6;537
7;566
8;592
9;621
10;653
11;685
12;721
13;754
14;771
15;769
0;749
1;723
2;690
3;656
4;620
5;583
6;540
7;497
8;459
9;424
10;399
11;379
12;360
13;347
14;340
15;334
0;327
1;319
2;315
3;314
4;320
5;335
6;348
7;362
8;385
9;402
10;406
11;407
12;411
13;412
14;410
15;409
0;405
1;402
2;406
3;405
4;401
5;406
6;413
7;418
8;435
9;456
10;480
11;505
12;519
13;524
14;516
15;510
0;504
1;504
2;507
3;508
4;507
5;507
6;512
7;518
8;527
9;546
10;561
11;558
12;553
13;552
14;547
15;546
0;547
1;543
2;534
3;527
4;523
5;521
6;521
7;525
8;531
9;539
10;548
11;555
12;563
13;571
14;577
15;577
0;576
1;576
2;572
3;566
4;562
5;558
6;556
7;554
8;556
9;560
10;566
11;574
12;579
13;583
14;589
15;594
0;600
1;601
2;601
3;600
4;595
5;589
6;578
7;561
8;561
9;570
10;583
11;600
12;612
13;628
14;647
15;655
0;652
1;647
2;648
3;646
4;641
5;636
6;628
7;620
8;617
9;615
10;612
11;610
12;615
13;618
14;621
15;627
0;643
1;672
2;717
3;756
4;751
5;718
6;683
7;649
8;628
9;621
10;620
11;620
12;624
13;631
14;633
15;633
0;638
1;639
2;639
3;637
4;631
5;618
6;604
7;595
8;593
9;593
10;595
11;594
12;593
13;599
14;604
15;608
0;612
1;616
2;612
3;601
4;596
5;591
6;583
7;577
8;566
9;553
10;552
11;556
12;557
13;559
14;561
15;560
0;558
1;559
2;559
3;558
4;556
5;549
6;541
7;534
8;531
9;526
10;519
11;516
12;517
13;517
14;521
15;527
0;530
1;533
2;536
3;540
4;555
5;586
6;606
7;587
8;551
9;522
10;501
11;490
12;492
13;498
14;504
15;513
0;518
1;520
2;524
3;523
4;518
5;516
6;518
7;518
8;518
9;520
10;524
11;523
12;522
13;523
14;515
15;512
0;518
1;524
2;532
3;542
4;549
5;551
6;552
7;553
8;552
9;551
10;548
11;547
12;543
13;543
14;541
15;538
0;537
1;536
2;532
3;533
4;537
5;541
6;545
7;547
8;540
9;529
10;522
11;512
12;502
13;495
14;497
15;497
0;499
1;510
2;521
3;529
4;534
5;535
6;529
7;521
8;510
9;493
10;478
11;477
12;493
13;521
14;547
15;542
0;513
1;490
2;481
3;475
4;473
5;471
6;466
7;461
8;460
9;458
10;454
11;448
12;445
13;441
14;437
15;437
0;439
1;440
2;446
3;455
4;465
5;472
6;478
7;478
8;475
9;464
10;455
11;450
12;444
13;441
14;439
15;440
0;443
1;445
2;451
3;461
4;469
5;473
6;480
7;483
8;480
9;474
10;473
11;470
12;466
13;462
14;457
15;452
0;448
1;445
2;444
3;447
4;455
5;462
6;469
7;475
8;475
9;472
10;470
11;466
12;456
13;445
14;434
15;427
0;421
1;417
2;410
3;406
4;407
5;407
6;403
7;402
8;410
9;419
10;425
11;427
12;415
13;397
14;384
15;382
0;381
1;384
2;399
3;425
4;455
5;485
6;511
7;535
8;558
9;584
10;612
11;653
12;695
13;721
14;734
15;752
0;766
1;769
2;766
3;761
4;743
5;718
6;695
7;668
8;643
9;612
10;565
11;516
12;474
13;436
14;408
15;388
0;369
1;354
2;340
3;343
4;367
5;403
6;431
7;445
8;445
9;436
10;427
11;415
12;407
13;405
14;398
15;386
0;378
1;374
2;373
3;377
4;384
5;390
6;396
7;408
8;418
9;425
10;434
11;441
12;444
13;449
14;455
15;457
0;457
1;459
2;460
3;463
4;469
5;478
6;484
7;493
8;506
9;517
10;527
11;538
12;540
13;534
14;531
15;527
0;521
1;517
2;511
3;505
4;504
5;508
6;514
7;519
8;526
9;530
10;535
11;540
12;544
13;547
14;548
15;550
0;547
1;540
2;534
3;527
4;520
5;517
6;519
7;520
8;522
9;529
10;538
11;547
12;557
13;565
14;568
15;571
0;575
1;582
2;595
3;600
4;591
5;591
6;593
7;585
8;582
9;582
10;586
11;588
12;585
13;576
14;566
15;558
0;556
1;555
2;565
3;582
4;590
5;605
6;620
7;621
8;614
9;602
10;598
11;600
12;607
13;610
14;610
15;608
0;607
1;604
2;597
3;593
4;591
5;589
6;587
7;588
8;593
9;595
10;599
11;607
12;614
13;621
14;625
15;624
0;621
1;617
2;611
3;604
4;598
5;591
6;583
7;574
8;567
9;568
10;572
11;576
12;584
13;590
14;596
15;600
0;598
1;592
2;585
3;579
4;570
5;561
6;556
7;545
8;539
9;541
10;539
11;537
12;543
13;549
14;553
15;557
0;560
1;555
2;550
3;545
4;537
5;529
6;520
7;509
8;501
9;500
10;504
11;510
12;515
13;520
14;522
15;523
0;524
1;525
2;536
3;558
4;582
5;576
6;550
7;527
8;505
9;489
10;482
11;482
12;485
13;490
14;496
15;499
0;502
1;503
2;504
3;504
4;505
5;504
6;499
7;495
8;492
9;491
10;493
11;499
12;500
13;501
14;507
15;515
0;521
1;524
2;525
3;527
4;529
5;528
6;525
7;520
8;516
9;512
10;506
11;506
12;510
13;513
14;524
15;540
0;551
1;559
2;565
3;567
4;563
5;558
6;550
7;536
8;523
9;512
10;504
11;500
12;502
13;500
14;501
15;505
0;505
1;504
2;514
3;536
4;545
5;535
6;521
7;510
8;500
9;491
10;485
11;480
12;476
13;475
14;474
15;473
0;471
1;471
2;471
3;478
4;500
5;512
6;507
7;499
8;485
9;469
10;459
11;447
12;438
13;433
14;430
15;432
0;434
1;438
2;441
3;443
4;446
5;445
6;441
7;437
8;434
9;427
10;417
11;412
12;411
13;411
14;411
15;412
0;417
1;428
2;440
3;447
4;450
5;450
6;449
7;448
8;446
9;440
10;432
11;426
12;422
13;418
14;415
15;416
0;419
1;428
2;440
3;453
4;466
5;476
6;475
7;464
8;458
9;456
10;449
11;437
12;429
13;422
14;417
15;412
0;407
1;403
2;400
3;400
4;399
5;398
6;396
7;393
8;388
9;385
10;379
11;366
12;357
13;348
14;339
15;338
0;345
1;354
2;366
3;382
4;404
5;429
6;456
7;481
8;505
9;528
10;549
11;571
12;588
13;604
14;625
15;647
0;672
1;698
2;716
3;728
4;739
5;754
6;761
7;756
8;743
9;701
10;646
11;591
12;531
13;472
14;422
15;380
0;347
1;326
2;317
3;313
4;317
5;319
6;324
7;333
8;341
9;348
10;352
11;353
12;357
13;360
14;360
15;362
0;361
1;359
2;362
3;364
4;366
5;372
6;383
7;390
8;396
9;404
10;409
11;414
12;418
13;418
14;418
15;419
0;423
1;430
2;435
3;444
4;450
5;458
6;469
7;478
8;488
9;498
10;504
11;508
12;512
13;513
14;509
15;504
0;503
1;500
2;497
3;499
4;504
5;505
6;510
7;520
8;529
9;534
10;539
11;542
12;547
13;554
14;556
15;544
0;533
1;525
2;518
3;522
4;525
5;530
6;534
7;540
8;553
9;563
10;566
11;563
12;553
13;543
14;537
15;532
0;539
1;552
2;573
3;592
4;597
5;589
6;572
7;560
8;561
9;563
10;567
11;571
12;575
13;573
14;572
15;574
0;573
1;566
2;559
3;553
4;549
5;547
6;548
7;553
8;562
9;571
10;573
11;578
12;584
13;587
14;581
15;579
0;582
1;582
2;580
3;577
4;571
5;569
6;571
7;575
8;581
9;589
10;596
11;600
12;606
13;611
14;614
15;612
0;611
1;607
2;603
3;602
4;601
5;594
6;585
7;576
8;571
9;568
10;565
11;561
12;563
13;567
14;566
15;563
0;562
1;562
2;560
3;553
4;544
5;532
6;526
7;526
8;527
9;528
10;532
11;536
12;537
13;540
14;549
15;563
0;561
1;550
2;540
3;529
4;515
5;502
6;491
7;489
8;493
9;498
10;505
11;513
12;519
13;523
14;527
15;532
0;537
1;542
2;541
3;535
4;527
5;517
6;503
7;489
8;483
9;485
10;485
11;486
12;492
13;497
14;500
15;505
0;513
1;517
2;518
3;515
4;504
5;488
6;481
7;479
8;477
9;481
10;486
11;490
12;494
13;497
14;498
15;498
0;502
1;508
2;512
3;515
4;513
5;507
6;500
7;494
8;486
9;481
10;481
11;480
12;481
13;489
14;499
15;505
0;515
1;521
2;523
3;525
4;525
5;524
6;517
7;504
8;487
9;475
10;470
11;471
12;472
13;474
14;482
15;489
0;497
1;503
2;503
3;498
4;491
5;483
6;475
7;473
8;474
9;473
10;472
11;467
12;459
13;448
14;448
15;473
0;500
1;514
2;521
3;523
4;508
5;490
6;471
7;455
8;445
9;433
10;422
11;417
12;418
13;419
14;422
15;433
0;443
1;448
2;451
3;457
4;457
5;456
6;453
7;442
8;428
9;415
10;411
11;409
12;405
13;402
14;405
15;410
0;419
1;429
2;437
3;447
4;452
5;448
6;442
7;438
8;431
9;427
10;422
11;416
12;415
13;417
14;417
15;417
0;416
1;422
2;432
3;443
4;452
5;454
6;452
7;449
8;444
9;432
10;420
11;413
12;410
13;413
14;422
15;424
0;421
1;420
2;425
3;431
4;435
5;435
6;427
7;415
8;401
9;387
10;372
11;359
12;348
13;339
14;335
15;335
0;340
1;352
2;369
3;384
4;395
5;405
6;416
7;428
8;450
9;470
10;488
11;505
12;524
13;545
14;566
15;593
0;629
1;662
2;695
3;724
4;741
5;752
6;752
7;744
8;730
9;707
10;674
11;630
12;583
13;533
14;480
15;432
0;396
1;368
2;348
3;341
4;340
5;343
6;347
7;352
8;349
9;343
10;343
11;340
12;336
13;335
14;335
15;332
0;337
1;344
2;350
3;359
4;372
5;383
6;394
7;405
8;412
9;417
10;424
11;428
12;425
13;423
14;427
15;431
0;436
1;442
2;449
3;456
4;463
5;472
6;481
7;493
8;506
9;515
10;519
11;521
12;520
13;514
14;509
15;510
0;508
1;504
2;503
3;502
4;500
5;503
6;511
7;520
8;534
9;547
10;559
11;569
12;575
13;571
14;556
15;543
0;537
1;541
2;543
3;545
4;543
5;550
6;557
7;553
8;549
9;556
10;580
11;595
12;597
13;585
14;567
15;555
0;547
1;541
2;541
3;543
4;546
5;548
6;553
7;560
8;566
9;573
10;579
11;583
12;588
13;589
14;585
15;578
0;571
1;568
2;567
3;570
4;577
5;580
6;584
7;591
8;600
9;607
10;611
11;614
12;614
13;614
14;615
15;607
0;596
1;591
2;590
3;589
4;590
5;591
6;592
7;595
8;600
9;605
10;613
11;622
12;629
13;632
14;630
15;627
0;620
1;615
2;607
3;600
4;594
5;592
6;596
7;601
8;607
9;611
10;612
11;615
12;617
13;612
14;607
15;604
0;594
1;580
2;573
3;568
4;561
5;556
6;555
7;556
8;560
9;570
10;579
11;592
12;605
13;615
14;622
15;623
0;607
1;587
2;563
3;539
4;520
5;513
6;512
7;506
8;509
9;516
10;524
11;531
12;531
13;535
14;538
15;539
0;534
1;526
2;514
3;504
4;498
5;491
6;486
7;489
8;492
9;494
10;499
11;508
12;513
13;521
14;525
15;521
0;516
1;517
2;516
3;508
4;496
5;486
6;480
7;483
8;494
9;502
10;506
11;511
12;514
13;516
14;521
15;525
0;526
1;526
2;526
3;523
4;515
5;511
6;505
7;501
8;501
9;504
10;509
11;515
12;523
13;531
14;535
15;539
0;541
1;540
2;540
3;539
4;533
5;527
6;520
7;514
8;510
9;506
10;503
11;501
12;508
13;515
14;519
15;525
0;532
1;534
2;530
3;527
4;527
5;522
6;517
7;517
8;511
9;507
10;504
11;498
12;487
13;476
14;470
15;464
0;460
1;467
2;484
3;501
4;504
5;492
6;474
7;460
8;448
9;439
10;438
11;443
12;444
13;447
14;456
15;463
0;464
1;465
2;463
3;455
4;452
5;451
6;444
7;435
8;430
9;428
10;428
11;433
12;438
13;441
14;447
15;451
0;450
1;451
2;457
3;464
4;466
5;466
6;463
7;455
8;447
9;443
10;438
11;438
12;441
13;441
14;443
15;447
0;453
1;458
2;463
3;467
4;465
5;465
6;469
7;468
8;464
9;461
10;457
11;453
12;447
13;444
14;440
15;436
0;436
1;438
2;440
3;440
4;439
5;438
6;437
7;431
8;417
9;403
10;393
11;387
12;378
13;378
14;384
15;380
0;376
1;383
2;392
3;406
4;413
5;417
6;420
7;426
8;441
9;464
10;488
11;510
12;524
13;541
14;565
15;588
0;617
1;651
2;686
3;720
4;748
5;764
6;772
7;768
8;747
9;714
10;678
11;647
12;608
13;560
14;519
15;477
0;436
1;407
2;384
3;366
4;354
5;351
6;348
7;339
8;333
9;332
10;328
11;327
12;329
13;332
14;337
15;346
0;352
1;356
2;364
3;374
4;382
5;393
6;401
7;404
8;405
9;408
10;414
11;416
12;419
13;422
14;423
15;429
0;440
1;447
2;454
3;465
4;477
5;484
6;495
7;507
8;512
9;515
10;514
11;509
12;507
13;505
14;501
15;496
0;494
1;496
2;502
3;512
4;527
5;540
6;548
7;552
8;555
9;557
10;562
11;565
12;558
13;550
14;543
15;543
0;549
1;546
2;538
3;534
4;538
5;542
6;535
7;528
8;540
9;565
10;588
11;596
12;591
13;584
14;576
15;566
0;553
1;544
2;542
3;541
4;543
5;550
6;553
7;557
8;564
9;572
10;575
11;575
12;578
13;579
14;579
15;579
0;576
1;571
2;569
3;570
4;568
5;564
6;567
7;575
8;588
9;599
10;608
11;610
12;611
13;614
14;615
15;609
0;604
1;599
2;600
3;604
4;608
5;611
6;617
7;625
8;630
9;640
10;647
11;645
12;642
13;637
14;631
15;622
0;613
1;604
2;596
3;594
