0;539
1;544
2;548
3;550
4;550
5;549
6;547
7;545
8;543
9;541
10;540
11;538
12;539
13;540
14;541
15;544
0;545
1;549
2;552
3;555
4;556
5;556
6;554
7;550
8;545
9;541
10;537
11;539
12;541
13;542
14;544
15;551
0;556
1;560
2;563
3;564
4;567
5;571
6;568
7;562
8;559
9;558
10;556
11;553
12;549
13;550
14;550
15;548
0;551
1;555
2;558
3;562
4;561
5;561
6;562
7;559
8;554
9;551
10;556
11;567
12;572
13;569
14;561
15;555
0;553
1;556
2;557
3;560
4;562
5;562
6;560
7;558
8;556
9;549
10;539
11;533
12;528
13;524
14;521
15;520
0;520
1;523
2;526
3;527
4;527
5;529
6;528
7;521
8;518
9;513
10;506
11;502
12;499
13;495
14;488
15;487
0;485
1;485
2;486
3;484
4;484
5;486
6;488
7;487
8;487
9;486
10;482
11;476
12;472
13;469
14;466
15;463
0;463
1;463
2;463
3;468
4;473
5;477
6;482
7;483
8;480
9;476
10;473
11;470
12;467
13;464
14;461
15;456
0;455
1;455
2;457
3;462
4;467
5;472
6;476
7;480
8;485
9;483
10;486
11;483
12;478
13;472
14;466
15;463
0;460
1;462
2;462
3;462
4;464
5;466
6;468
7;475
8;483
9;486
10;484
11;483
12;480
13;476
14;472
15;471
0;469
1;467
2;467
3;467
4;472
5;478
6;481
7;483
8;485
9;486
10;486
11;486
12;482
13;478
14;476
15;474
0;471
1;468
2;468
3;471
4;473
5;475
6;478
7;481
8;486
9;489
10;493
11;493
12;493
13;494
14;490
15;487
0;485
1;482
2;481
3;480
4;478
5;474
6;477
7;483
8;486
9;489
10;491
11;493
12;492
13;491
14;488
15;486
0;487
1;487
2;489
3;490
4;489
5;491
6;493
7;498
8;503
9;507
10;513
11;516
12;512
13;507
14;502
15;499
0;497
1;494
2;488
3;487
4;490
5;491
6;489
7;493
8;495
9;496
10;499
11;503
12;504
13;504
14;507
15;507
0;503
1;499
2;499
3;496
4;492
5;491
6;489
7;491
8;496
9;499
10;502
11;506
12;510
13;512
14;512
15;512
0;510
1;504
2;498
3;490
4;486
5;485
6;485
7;489
8;496
9;505
10;513
11;517
12;519
13;520
14;521
15;519
0;517
1;513
2;509
3;505
4;501
5;498
6;499
7;500
8;501
9;504
10;508
11;511
12;515
13;520
14;525
15;526
0;524
1;520
2;514
3;509
4;505
5;502
6;500
7;499
8;502
9;504
10;507
11;511
12;514
13;516
14;517
15;517
0;518
1;517
2;511
3;506
4;504
5;501
6;499
7;497
8;497
9;502
10;507
11;509
12;510
13;519
14;523
15;523
0;519
1;518
2;515
3;507
4;501
5;498
6;497
7;499
8;503
9;504
10;505
11;507
12;511
13;516
14;522
15;527
0;533
1;538
2;540
3;539
4;528
5;525
6;524
7;520
8;515
9;512
10;510
11;508
12;509
13;514
14;516
15;516
0;521
1;524
2;523
3;523
4;521
5;518
6;515
7;515
8;513
9;513
10;513
11;518
12;522
13;529
14;537
15;542
0;549
1;552
2;556
3;555
4;553
5;549
6;545
7;542
8;539
9;534
10;531
11;528
12;527
13;529
14;535
15;536
0;538
1;540
2;543
3;543
4;542
5;541
6;542
7;538
8;532
9;529
10;527
11;526
12;521
13;515
14;512
15;517
0;520
1;519
2;524
3;526
4;522
5;517
6;511
7;504
8;498
9;491
10;486
11;483
12;482
13;483
14;482
15;485
0;490
1;495
2;499
3;502
4;504
5;504
6;502
7;500
8;494
9;490
10;484
11;480
12;479
13;477
14;475
15;473
0;479
1;486
2;494
3;499
4;503
5;502
6;500
7;498
8;493
9;487
10;484
11;478
12;478
13;483
14;481
15;482
0;487
1;491
2;499
3;505
4;508
5;510
6;508
7;502
8;498
9;493
10;488
11;485
12;483
13;484
14;485
15;485
0;485
1;487
2;488
3;493
4;500
5;506
6;508
7;510
8;510
9;508
10;504
11;500
12;493
13;488
14;490
15;490
0;489
1;491
2;495
3;499
4;503
5;505
6;506
7;507
8;508
9;507
10;504
11;498
12;492
13;488
14;488
15;491
0;497
1;504
2;512
3;524
4;537
5;554
6;572
7;587
8;599
9;613
10;633
11;648
12;667
13;688
14;708
15;729
0;748
1;763
2;778
3;798
4;814
5;824
6;831
7;830
8;817
9;798
10;770
11;737
12;699
13;662
14;621
15;576
0;531
1;492
2;457
3;432
4;414
5;398
6;386
7;380
8;375
9;371
10;368
11;364
12;362
13;356
14;349
15;345
0;349
1;356
2;361
3;364
4;371
5;378
6;384
7;396
8;411
9;415
10;419
11;424
12;426
13;425
14;427
15;428
0;433
1;437
2;444
3;451
4;457
5;465
6;473
7;478
8;483
9;487
10;490
11;495
12;497
13;496
14;492
15;490
0;487
1;487
2;487
3;486
4;491
5;494
6;499
7;501
8;503
9;507
10;507
11;504
12;504
13;502
14;498
15;492
0;487
1;486
2;488
3;492
4;495
5;496
6;500
7;505
8;511
9;517
10;518
11;519
12;522
13;524
14;523
15;520
0;519
1;517
2;514
3;511
4;511
5;512
6;514
7;518
8;522
9;524
10;526
11;527
12;526
13;525
14;524
15;524
0;522
1;519
2;517
3;515
4;514
5;516
6;518
7;520
8;524
9;527
10;522
11;520
12;521
13;525
14;527
15;528
0;533
1;537
2;534
3;528
4;523
5;525
6;528
7;531
8;532
9;535
10;538
11;540
12;542
13;543
14;541
15;540
0;540
1;536
2;532
3;531
4;528
5;524
6;522
7;521
8;519
9;524
10;529
11;536
12;547
13;550
14;549
15;550
0;550
1;547
2;543
3;540
4;534
5;528
6;529
7;531
8;531
9;533
10;539
11;544
12;547
13;553
14;557
15;558
0;560
1;560
2;555
3;552
4;551
5;547
6;543
7;544
8;544
9;543
10;547
11;554
12;561
13;569
14;576
15;578
0;577
1;579
2;577
3;572
4;567
5;562
6;557
7;552
8;551
9;550
10;550
11;555
12;564
13;571
14;574
15;576
0;575
1;573
2;569
3;562
4;555
5;551
6;548
7;545
8;543
9;541
10;543
11;544
12;546
13;547
14;548
15;547
0;545
1;542
2;544
3;544
4;545
5;544
6;545
7;543
8;540
9;535
10;531
11;529
12;530
13;531
14;531
15;532
0;531
1;527
2;525
3;523
4;519
5;512
6;505
7;500
8;494
9;490
10;496
11;496
12;498
13;500
14;503
15;502
0;502
1;501
2;501
3;502
4;499
5;495
6;489
7;485
8;480
9;476
10;476
11;478
12;479
13;481
14;487
15;492
0;494
1;492
2;494
3;493
4;494
5;493
6;488
7;483
8;478
9;475
10;473
11;476
12;478
13;478
14;479
15;480
0;484
1;488
2;489
3;489
4;488
5;486
6;482
7;480
8;481
9;481
10;478
11;478
12;478
13;476
14;474
15;477
0;480
1;482
2;484
3;491
4;494
5;496
6;494
7;489
8;486
9;484
10;481
11;476
12;475
13;475
14;475
15;478
0;482
1;486
2;487
3;488
4;492
5;498
6;504
7;507
8;502
9;502
10;500
11;496
12;494
13;492
14;490
15;489
0;491
1;496
2;497
3;500
4;504
5;508
6;509
7;507
8;502
9;497
10;493
11;492
12;487
13;483
14;484
15;490
0;490
1;499
2;508
3;512
4;514
5;517
6;517
7;518
8;524
9;524
10;518
11;514
12;509
13;505
14;501
15;497
0;492
1;490
2;495
3;500
4;506
5;507
6;506
7;510
8;516
9;519
10;514
11;509
12;505
13;501
14;498
15;497
0;497
1;501
2;506
3;509
4;512
5;516
6;519
7;521
8;520
9;519
10;519
11;515
12;511
13;506
14;502
15;501
0;503
1;505
2;504
3;507
4;509
5;511
6;513
7;515
8;513
9;515
10;516
11;517
12;517
13;513
14;510
15;508
0;504
1;499
2;496
3;496
4;497
5;499
6;502
7;507
8;514
9;517
10;519
11;518
12;515
13;509
14;499
15;495
0;496
1;496
2;498
3;498
4;500
5;505
6;509
7;513
8;514
9;515
10;516
11;515
12;513
13;509
14;506
15;501
0;500
1;500
2;500
3;500
4;501
5;507
6;514
7;518
8;518
9;519
10;514
11;513
12;516
13;512
14;507
15;502
0;495
1;487
2;492
3;498
4;504
5;511
6;516
7;519
8;520
9;526
10;531
11;532
12;531
13;529
14;525
15;518
0;512
1;507
2;505
3;505
4;505
5;508
6;512
7;515
8;517
9;521
10;523
11;524
12;525
13;525
14;521
15;516
0;511
1;505
2;502
3;502
4;501
5;500
6;500
7;502
8;506
9;509
10;515
11;517
12;521
13;526
14;530
15;531
0;531
1;528
2;527
3;524
4;523
5;525
6;523
7;524
8;533
9;543
10;548
11;551
12;551
13;548
14;545
15;544
0;542
1;532
2;527
3;529
4;524
5;520
6;519
7;520
8;523
9;528
10;526
11;527
12;532
13;534
14;532
15;528
0;525
1;519
2;514
3;505
4;498
5;495
6;495
7;493
8;494
9;497
10;501
11;506
12;510
13;512
14;514
15;514
0;516
1;513
2;507
3;502
4;496
5;494
6;492
7;487
8;483
9;483
10;486
11;489
12;490
13;492
14;495
15;496
0;497
1;496
2;492
3;489
4;484
5;478
6;478
7;478
8;477
9;478
10;480
11;484
12;488
13;493
14;497
15;500
0;502
1;499
2;495
3;489
4;483
5;479
6;475
7;472
8;472
9;475
10;479
11;487
12;494
13;497
14;500
15;506
0;507
1;505
2;503
3;499
4;494
5;489
6;486
7;481
8;480
9;483
10;489
11;491
12;490
13;497
14;505
15;510
0;513
1;513
2;512
3;507
4;501
5;497
6;492
7;489
8;486
9;483
10;481
11;482
12;486
13;491
14;494
15;497
0;503
1;508
2;512
3;519
4;525
5;526
6;530
7;537
8;545
9;554
10;569
11;585
12;606
13;631
14;655
15;683
0;711
1;733
2;752
3;769
4;786
5;799
6;809
7;812
8;814
9;811
10;801
11;785
12;764
13;737
14;711
15;682
0;651
1;615
2;575
3;535
4;497
5;464
6;433
7;405
8;382
9;365
10;353
11;349
12;348
13;350
14;353
15;359
0;366
1;376
2;383
3;392
4;400
5;402
6;403
7;404
8;406
9;407
10;408
11;412
12;417
13;423
14;428
15;435
0;442
1;448
2;456
3;462
4;467
5;471
6;473
7;475
8;473
9;471
10;473
11;473
12;473
13;477
14;482
15;487
0;494
1;499
2;505
3;510
4;516
5;517
6;516
7;513
8;509
9;505
10;506
11;506
12;503
13;500
14;500
15;501
0;504
1;510
2;512
3;518
4;523
5;525
6;525
7;524
8;522
9;519
10;517
11;514
12;511
13;508
14;506
15;507
0;508
1;510
2;513
3;519
4;527
5;529
6;527
7;525
8;525
9;523
10;520
11;517
12;514
13;512
14;512
15;513
0;512
1;512
2;515
3;519
4;526
5;528
6;529
7;527
8;524
9;520
10;515
11;514
12;511
13;511
14;518
15;527
0;531
1;534
2;537
3;538
4;538
5;539
6;543
7;546
8;544
9;542
10;541
11;541
12;537
13;532
14;527
15;525
0;526
1;529
2;528
3;530
4;540
5;544
6;546
7;547
8;546
9;545
10;543
11;542
12;539
13;534
14;532
15;530
0;529
1;530
2;531
3;534
4;537
5;539
6;542
7;546
8;549
9;552
10;553
11;554
12;551
13;547
14;544
15;541
0;535
1;536
2;537
3;538
4;544
5;550
6;553
7;559
8;565
9;568
10;568
11;568
12;567
13;565
14;562
15;558
0;552
1;549
2;550
3;551
4;549
5;556
6;563
7;567
8;569
9;571
10;570
11;569
12;572
13;574
14;571
15;566
0;561
1;558
2;555
3;552
4;555
5;558
6;560
7;562
8;563
9;565
10;566
11;566
12;569
13;568
14;563
15;557
0;551
1;545
2;541
3;539
4;537
5;536
6;536
7;534
8;534
9;536
10;540
11;541
12;541
13;537
14;534
15;530
0;523
1;515
2;510
3;504
4;501
5;498
6;496
7;497
8;500
9;503
10;504
11;504
12;502
13;500
14;497
15;492
0;485
1;480
2;475
3;472
4;468
5;468
6;469
7;470
8;477
9;483
10;485
11;487
12;486
13;481
14;480
15;477
0;473
1;467
2;461
3;456
4;454
5;454
6;455
7;454
8;455
9;459
10;463
11;468
12;473
13;476
14;476
15;475
0;474
1;469
2;465
3;464
4;461
5;463
6;465
7;465
8;464
9;462
10;469
11;474
12;477
13;477
14;479
15;479
0;477
1;473
2;468
3;465
4;460
5;459
6;462
7;467
8;471
9;472
10;475
11;477
12;480
13;483
14;483
15;485
0;487
1;487
2;483
3;478
4;470
5;462
6;459
7;460
8;460
9;461
10;463
11;466
12;468
13;476
14;481
15;486
0;490
1;490
2;485
3;482
4;482
5;487
6;486
7;484
8;486
9;487
10;489
11;492
12;495
13;496
14;496
15;500
0;506
1;507
2;505
3;503
4;497
5;492
6;488
7;483
8;481
9;485
10;484
11;481
12;486
13;490
14;496
15;499
0;502
1;506
2;504
3;502
4;499
5;495
6;491
7;487
8;486
9;489
10;491
11;496
12;501
13;505
14;510
15;512
0;513
1;512
2;510
3;505
4;499
5;493
6;489
7;484
8;482
9;483
10;486
11;488
12;492
13;496
14;500
15;503
0;507
1;511
2;514
3;515
4;513
5;510
6;507
7;502
8;498
9;496
10;496
11;494
12;492
13;489
14;496
15;510
0;518
1;519
2;518
3;515
4;514
5;514
6;510
7;505
8;502
9;500
10;499
11;499
12;499
13;497
14;498
15;501
0;505
1;508
2;511
3;512
4;509
5;508
6;508
7;506
8;502
9;497
10;495
11;497
12;499
13;499
14;500
15;503
0;509
1;513
2;512
3;518
4;519
5;521
6;523
7;523
8;519
9;516
10;510
11;502
12;501
13;503
14;503
15;504
0;510
1;512
2;510
3;508
4;513
5;513
6;511
7;509
8;503
9;501
10;497
11;494
12;491
13;491
14;494
15;496
0;501
1;506
2;506
3;508
4;510
5;513
6;513
7;509
8;507
9;505
10;504
11;504
12;504
13;503
14;505
15;509
0;516
1;521
2;523
3;526
4;529
5;532
6;532
7;532
8;533
9;534
10;531
11;526
12;520
13;517
14;518
15;521
0;523
1;524
2;524
3;526
4;528
5;533
6;540
7;544
8;550
9;553
10;553
11;551
12;549
13;546
14;542
15;541
0;540
1;541
2;545
3;549
4;550
5;553
6;556
7;554
8;551
9;550
10;548
11;546
12;543
13;539
14;533
15;527
0;524
1;524
2;524
3;529
4;537
5;542
6;545
7;543
8;538
9;532
10;526
11;525
12;520
13;518
14;514
15;509
0;505
1;503
2;500
3;499
4;502
5;505
6;507
7;509
8;511
9;509
10;508
11;506
12;502
13;497
14;492
15;487
0;486
1;483
2;481
3;481
4;484
5;487
6;491
7;496
8;499
9;500
10;497
11;495
12;493
13;488
14;484
15;480
0;475
1;473
2;475
3;478
4;481
5;486
6;493
7;497
8;500
9;504
10;506
11;505
12;504
13;504
14;500
15;495
0;491
1;486
2;483
3;485
4;487
5;490
6;496
7;500
8;504
9;507
10;508
11;507
12;505
13;503
14;501
15;497
0;492
1;492
2;495
3;499
4;501
5;502
6;505
7;511
8;515
9;519
10;519
11;515
12;511
13;508
14;502
15;492
0;483
1;490
2;492
3;489
4;490
5;491
6;492
7;498
8;508
9;516
10;524
11;531
12;538
13;543
14;559
15;575
0;591
1;604
2;617
3;634
4;654
5;677
6;699
7;723
8;748
9;771
10;790
11;806
12;816
13;816
14;817
15;816
0;809
1;795
2;774
3;745
4;711
5;677
6;642
7;607
8;570
9;535
10;502
11;473
12;449
13;425
14;401
15;383
0;369
1;355
2;345
3;337
4;334
5;334
6;341
7;347
8;350
9;358
10;368
11;378
12;387
13;393
14;400
15;404
0;407
1;408
2;406
3;405
4;407
5;409
6;415
7;422
8;430
9;437
10;448
11;457
12;464
13;472
14;476
15;474
0;472
1;476
2;475
3;472
4;468
5;463
6;463
7;464
8;464
9;469
10;476
11;482
12;488
13;492
14;496
15;499
0;496
1;500
2;499
3;494
4;490
5;487
6;486
7;484
8;486
9;487
10;489
11;493
12;497
13;501
14;506
15;510
0;511
1;509
2;505
3;504
4;506
5;505
6;502
7;499
8;497
9;496
10;498
11;498
12;501
13;511
14;519
15;525
0;528
1;527
2;521
3;519
4;516
5;511
6;507
7;506
8;504
9;504
10;507
11;508
12;511
13;513
14;512
15;513
0;516
1;518
2;516
3;513
4;508
5;503
6;501
7;499
8;497
9;495
10;496
11;497
12;496
13;498
14;503
15;509
0;516
1;520
2;520
3;519
4;519
5;518
6;515
7;513
8;512
9;509
10;508
11;509
12;509
13;510
14;513
15;517
0;520
1;525
2;528
3;531
4;532
5;532
6;530
7;527
8;527
9;526
10;526
11;525
12;524
13;527
14;531
15;535
0;540
1;544
2;547
3;547
4;550
5;554
6;557
7;557
8;555
9;547
10;541
11;539
12;539
13;539
14;540
15;544
0;548
1;551
2;554
3;560
4;564
5;565
6;564
7;561
8;558
9;555
10;554
11;551
12;550
13;551
14;551
15;550
0;553
1;558
2;564
3;569
4;575
5;576
6;575
7;571
8;565
9;561
10;556
11;551
12;548
13;544
14;542
15;542
0;541
1;543
2;544
3;548
4;550
5;552
6;551
7;551
8;547
9;540
10;534
11;531
12;530
13;529
14;530
15;525
0;519
1;515
2;513
3;516
4;518
5;523
6;527
7;528
8;527
9;528
10;528
11;526
12;521
13;516
14;510
15;506
0;499
1;492
2;492
3;492
4;492
5;495
6;495
7;491
8;487
9;483
10;478
11;475
12;473
13;470
14;468
15;469
0;466
1;467
2;469
3;472
4;474
5;478
6;481
7;481
8;478
9;477
10;473
11;468
12;463
13;459
14;454
15;451
0;449
1;449
2;451
3;454
4;454
5;456
6;461
7;460
8;461
9;462
10;464
11;467
12;466
13;465
14;460
15;456
0;457
1;462
2;465
3;468
4;472
5;478
6;484
7;486
8;490
9;492
10;493
11;492
12;488
13;482
14;473
15;463
0;460
1;465
2;468
3;468
4;467
5;470
6;475
7;485
8;491
9;492
10;488
11;485
12;481
13;474
14;471
15;472
0;474
1;473
2;473
3;474
4;475
5;477
6;480
7;483
8;489
9;494
10;495
11;498
12;498
13;496
14;491
15;489
0;488
1;489
2;488
3;487
4;485
5;485
6;488
7;491
8;494
9;496
10;497
11;493
12;491
13;489
14;488
15;485
0;485
1;484
2;481
3;480
4;482
5;487
6;490
7;497
8;501
9;503
10;504
11;500
12;496
13;496
14;499
15;499
0;493
1;489
2;485
3;486
4;487
5;488
6;490
7;492
8;496
9;501
10;505
11;508
12;510
13;515
14;516
15;509
0;506
1;503
2;502
3;498
4;496
5;499
6;500
7;500
8;505
9;509
10;513
11;514
12;515
13;515
14;515
15;513
0;509
1;507
2;505
3;502
4;499
5;499
6;499
7;499
8;500
9;502
10;503
11;506
12;512
13;517
14;516
15;515
0;513
1;510
2;510
3;507
4;504
5;502
6;501
7;500
8;502
9;509
10;511
11;510
12;514
13;519
14;521
15;523
0;522
1;521
2;518
3;512
4;508
5;503
6;499
7;499
8;499
9;500
10;500
11;504
12;509
13;513
14;517
15;516
0;513
1;514
2;511
3;508
4;504
5;503
6;501
7;498
8;499
9;503
10;506
11;511
12;517
13;521
14;525
15;526
0;528
1;529
2;527
3;522
4;515
5;511
6;510
7;507
8;506
9;506
10;507
11;512
12;515
13;516
14;519
15;521
0;520
1;521
2;521
3;517
4;513
5;511
6;508
7;504
8;500
9;500
10;502
11;504
12;507
13;518
14;528
15;536
0;541
1;545
2;553
3;556
4;554
5;551
6;548
7;543
8;538
9;535
10;532
11;529
12;527
13;530
14;533
15;535
0;537
1;538
2;539
3;538
4;536
5;533
6;527
7;521
8;516
9;513
10;512
11;512
12;511
13;511
14;511
15;515
0;518
1;517
2;512
3;507
4;500
5;497
6;494
7;488
8;487
9;484
10;481
11;479
12;477
13;479
14;487
15;495
0;496
1;498
2;499
3;496
4;492
5;491
6;489
7;488
8;484
9;480
10;476
11;472
12;470
13;470
14;472
15;480
0;486
1;489
2;492
3;496
4;497
5;498
6;497
7;492
8;484
9;479
10;476
11;474
12;476
13;480
14;482
15;482
0;482
1;483
2;488
3;492
4;493
5;491
6;490
7;488
8;483
9;481
10;478
11;476
12;475
13;475
14;476
15;475
0;475
1;480
2;486
3;493
4;496
5;498
6;503
7;506
8;500
9;494
10;490
11;486
12;482
13;480
14;478
15;477
0;478
1;483
2;483
3;484
4;489
5;498
6;497
7;493
8;492
9;487
10;482
11;480
12;481
13;482
14;485
15;490
0;495
1;502
2;514
3;529
4;544
5;560
6;576
7;591
8;603
9;616
10;630
11;646
12;664
13;685
14;706
15;722
0;739
1;755
2;771
3;793
4;812
5;820
6;825
7;823
8;815
9;793
10;765
11;733
12;695
13;654
14;611
15;569
0;529
1;489
2;460
3;435
4;413
5;396
6;385
7;378
8;371
9;363
10;359
11;359
12;359
13;361
14;364
15;366
0;369
1;372
2;376
3;383
4;391
5;397
6;406
7;415
8;420
9;423
10;428
11;429
12;428
13;430
14;432
15;434
0;436
1;441
2;448
3;457
4;465
5;472
6;477
7;481
8;486
9;494
10;499
11;502
12;502
13;499
14;496
15;494
0;490
1;491
2;492
3;495
4;499
5;504
6;508
7;511
8;513
9;517
10;517
11;515
12;514
13;511
14;510
15;509
0;504
1;498
2;497
3;500
4;500
5;501
6;506
7;512
8;516
9;521
10;526
11;526
12;525
13;523
14;520
15;515
0;514
1;512
2;512
3;512
4;513
5;515
6;520
7;526
8;527
9;529
10;529
11;529
12;528
13;526
14;523
15;518
0;514
1;512
2;507
3;505
4;506
5;506
6;508
7;512
8;516
9;513
10;519
11;521
12;516
13;507
14;500
15;501
0;500
1;499
2;497
3;495
4;502
5;504
6;501
7;500
8;506
9;511
10;515
11;518
12;524
13;524
14;523
15;520
0;514
1;507
2;508
3;508
4;509
5;514
6;517
7;518
8;521
9;521
10;519
11;523
12;526
13;528
14;529
15;528
0;524
1;517
2;509
3;502
4;497
5;494
6;495
7;496
8;497
9;506
10;518
11;526
12;536
13;540
14;542
15;540
0;536
1;528
2;524
3;519
4;515
5;513
6;517
7;521
8;528
9;535
10;537
11;541
12;549
13;556
14;557
15;559
0;560
1;559
2;556
3;550
4;548
5;547
6;541
7;533
8;529
9;525
10;526
11;535
12;544
13;548
14;553
15;556
0;554
1;550
2;545
3;539
4;533
5;528
6;526
7;525
8;522
9;521
10;525
11;529
12;533
13;543
14;548
15;549
0;546
1;536
2;524
3;515
4;509
5;502
6;494
7;490
8;492
9;495
10;496
11;497
12;503
13;505
14;505
15;504
0;501
1;496
2;491
3;490
4;487
5;487
6;484
7;479
8;471
9;466
10;463
11;461
12;461
13;463
14;462
15;463
0;464
1;461
2;455
3;451
4;445
5;437
6;431
7;431
8;428
9;424
10;420
11;418
12;420
13;427
14;431
15;432
0;434
1;439
2;437
3;434
4;430
5;427
6;424
7;420
8;415
9;415
10;421
11;425
12;425
13;426
14;431
15;435
0;439
1;442
2;444
3;447
4;445
5;443
6;440
7;437
8;436
9;436
10;439
11;441
12;442
13;439
14;438
15;441
0;448
1;452
2;453
3;451
4;457
5;463
6;460
7;453
8;444
9;437
10;435
11;432
12;431
13;432
14;439
15;445
0;445
1;446
2;444
3;446
4;449
5;451
6;451
7;449
8;445
9;443
10;439
11;432
12;429
13;430
14;431
15;432
0;434
1;438
2;443
3;449
4;450
5;449
6;450
7;454
8;455
9;457
10;460
11;454
12;444
13;440
14;439
15;439
0;444
1;450
2;453
3;456
4;459
5;460
6;459
7;460
8;456
9;447
10;443
11;439
12;436
13;436
14;440
15;442
0;443
1;444
2;446
3;448
4;449
5;455
6;463
7;472
8;471
9;465
10;457
11;452
12;452
13;451
14;454
15;455
0;452
1;449
2;450
3;453
4;457
5;466
6;469
7;467
8;465
9;459
10;456
11;454
12;454
13;447
14;443
15;446
0;449
1;451
2;456
3;462
4;463
5;465
6;467
7;470
8;476
9;479
10;478
11;473
12;470
13;465
14;459
15;456
0;457
1;458
2;462
3;469
4;476
5;481
6;486
7;488
8;487
9;490
10;490
11;487
12;487
13;483
14;477
15;473
0;472
1;470
2;468
3;467
4;475
5;478
6;481
7;483
8;483
9;481
10;480
11;479
12;477
13;475
14;471
15;465
0;463
1;470
2;472
3;472
4;476
5;483
6;489
7;496
8;503
9;506
10;507
11;506
12;505
13;502
14;499
15;497
0;493
1;488
2;483
3;481
4;481
5;486
6;492
7;496
8;499
9;501
10;507
11;508
12;506
13;498
14;494
15;496
0;496
1;494
2;495
3;492
4;487
5;486
6;488
7;492
8;495
9;496
10;497
11;491
12;486
13;478
14;472
15;468
0;464
1;456
2;454
3;456
4;456
5;457
6;461
7;467
8;472
9;476
10;481
11;480
12;477
13;475
14;471
15;465
0;462
1;459
2;455
3;455
4;460
5;462
6;460
7;463
8;469
9;474
10;480
11;483
12;484
13;488
14;491
15;488
0;483
1;478
2;472
3;471
4;468
5;466
6;468
7;472
8;478
9;484
10;489
11;494
12;501
13;504
14;505
15;504
0;499
1;496
2;492
3;491
4;488
5;487
6;487
7;486
8;487
9;492
10;495
11;498
12;500
13;501
14;500
15;500
0;494
1;487
2;480
3;472
4;475
5;479
6;488
7;497
8;503
9;515
10;519
11;519
12;521
13;521
14;519
15;520
0;519
1;517
2;511
3;504
4;499
5;498
6;499
7;503
8;509
9;520
10;537
11;556
12;576
13;596
14;612
15;628
0;647
1;673
2;696
3;717
4;736
5;750
6;764
7;783
8;802
9;820
10;839
11;851
12;857
13;853
14;843
15;823
0;797
1;767
2;727
3;684
4;637
5;589
6;543
7;503
8;468
9;442
10;418
11;401
12;392
13;385
14;381
15;379
0;376
1;374
2;373
3;376
4;379
5;382
6;385
7;387
8;394
9;400
10;401
11;406
12;413
13;424
14;435
15;441
0;446
1;451
2;455
3;460
4;463
5;464
6;464
7;464
8;466
9;469
10;473
11;477
12;484
13;494
14;496
15;507
0;512
1;519
2;523
3;524
4;526
5;524
6;520
7;518
8;517
9;516
10;513
11;513
12;514
13;517
14;520
15;522
0;527
1;531
2;531
3;530
4;528
5;527
6;524
7;522
8;523
9;524
10;526
11;526
12;527
13;531
14;536
15;541
0;545
1;548
2;551
3;553
4;554
5;554
6;550
7;544
8;542
9;542
10;538
11;533
12;529
13;527
14;532
15;540
0;547
1;555
2;561
3;563
4;562
5;559
6;558
7;555
8;551
9;548
10;542
11;539
12;535
13;536
14;540
15;545
0;551
1;559
2;566
3;570
4;573
5;573
6;571
7;564
8;559
9;552
10;541
11;532
12;534
13;538
14;540
15;546
0;552
1;557
2;561
3;566
4;568
5;566
6;564
7;560
8;554
9;550
10;547
11;545
12;543
13;543
14;542
15;542
0;548
1;560
2;564
3;570
4;573
5;575
6;575
7;571
8;567
9;563
10;561
11;561
12;561
13;562
14;561
15;559
0;559
1;562
2;570
3;575
4;581
5;585
6;586
7;587
8;585
9;583
10;578
11;572
12;568
13;565
14;563
15;564
0;565
1;569
2;576
3;581
4;588
5;592
6;593
7;594
8;595
9;593
10;588
11;583
12;579
13;575
14;573
15;572
0;572
1;573
2;572
3;571
4;575
5;580
6;585
7;586
8;585
9;583
10;579
11;574
12;567
13;561
14;559
15;555
0;550
1;546
2;547
3;548
4;551
5;556
6;561
7;562
8;562
9;558
10;553
11;546
12;537
13;530
14;526
15;525
0;524
1;523
2;519
3;518
4;517
5;515
6;516
7;516
8;517
9;518
10;517
11;515
12;509
13;503
14;500
15;494
0;485
1;485
2;486
3;486
4;493
5;496
6;497
7;505
8;509
9;509
10;508
11;504
12;499
13;493
14;486
15;479
0;472
1;467
2;466
3;465
4;465
5;467
6;471
7;474
8;479
9;481
10;480
11;480
12;480
13;479
14;474
15;470
0;468
1;466
2;462
3;463
4;464
5;465
6;467
7;472
8;475
9;482
10;484
11;485
12;485
13;482
14;478
15;474
0;470
1;467
2;467
3;468
4;469
5;469
6;470
7;473
8;477
9;481
10;485
11;485
12;484
13;483
14;480
15;475
0;470
1;465
2;463
3;461
4;462
5;466
6;470
7;475
8;481
9;484
10;487
11;489
12;491
13;491
14;494
15;492
0;483
1;481
2;476
3;472
4;470
5;468
6;463
7;468
8;473
9;476
10;477
11;477
12;480
13;483
14;486
15;488
0;486
1;482
2;480
3;475
4;471
5;472
6;472
7;472
8;474
9;476
10;482
11;487
12;491
13;493
14;495
15;492
0;487
1;484
2;482
3;483
4;482
5;482
6;482
7;481
8;482
9;487
10;489
11;492
12;493
13;497
14;497
15;498
0;497
1;494
2;491
3;488
4;489
5;488
6;487
7;487
8;487
9;491
10;499
11;511
12;516
13;518
14;517
15;513
0;508
1;506
2;503
3;503
4;504
5;505
6;502
7;503
8;502
9;502
10;505
11;510
12;512
13;515
14;518
15;518
0;520
1;519
2;518
3;513
4;506
5;501
6;496
7;494
8;491
9;492
10;495
11;502
12;508
13;512
14;515
15;518
0;517
1;519
2;518
3;515
4;511
5;513
6;511
7;507
8;504
9;504
10;502
11;502
12;507
13;516
14;523
15;527
0;530
1;531
2;531
3;529
4;524
5;521
6;516
7;511
8;509
9;510
10;512
11;513
12;516
13;524
14;528
15;533
0;538
1;538
2;545
3;547
4;547
5;540
6;532
7;529
8;525
9;520
10;515
11;513
12;513
13;514
14;518
15;526
0;532
1;536
2;538
3;541
4;542
5;538
6;534
7;530
8;525
9;524
10;525
11;527
12;527
13;531
14;536
15;540
0;544
1;544
2;547
3;551
4;553
5;553
6;552
7;549
8;545
9;542
10;537
11;535
12;538
13;535
14;531
15;529
0;526
1;526
2;529
3;535
4;538
5;537
6;536
7;531
8;528
9;526
10;523
11;520
12;519
13;516
14;514
15;512
0;514
1;518
2;516
3;518
4;520
5;519
6;515
7;511
8;505
9;500
10;495
11;491
12;490
13;491
14;489
15;488
0;486
1;489
2;493
3;502
4;507
5;506
6;503
7;502
8;495
9;490
10;486
11;485
12;483
13;484
14;483
15;481
0;480
1;483
2;485
3;488
4;492
5;495
6;494
7;493
8;495
9;493
10;488
11;483
12;478
13;473
14;472
15;472
0;473
1;479
2;487
3;491
4;492
5;493
6;495
7;498
8;498
9;496
10;491
11;487
12;487
13;487
14;487
15;488
0;489
1;492
2;496
3;501
4;504
5;504
6;502
7;500
8;501
9;501
10;499
11;501
12;498
13;492
14;487
15;486
0;487
1;488
2;494
3;500
4;505
5;507
6;509
7;508
8;509
9;512
10;515
11;516
12;514
13;518
14;518
15;522
0;532
1;545
2;561
3;576
4;594
5;622
6;652
7;675
8;697
9;723
10;747
11;768
12;783
13;799
14;809
15;824
0;840
1;853
2;860
3;862
4;860
5;847
6;824
7;798
8;768
9;731
10;691
11;647
12;602
13;560
14;523
15;485
0;450
1;422
2;398
3;383
4;378
5;374
6;370
7;372
8;376
9;381
10;383
11;381
12;384
13;390
14;394
15;400
0;408
1;415
2;420
3;423
4;425
5;430
6;438
7;444
8;449
9;459
10;464
11;469
12;472
13;474
14;473
15;473
0;475
1;480
2;487
3;489
4;489
5;493
6;499
7;506
8;514
9;520
10;525
11;528
12;528
13;528
14;524
15;521
0;516
1;510
2;507
3;510
4;515
5;518
6;521
7;526
8;528
9;532
10;537
11;540
12;543
13;545
14;543
15;539
0;537
1;535
2;532
3;529
4;529
5;530
6;532
7;535
8;542
9;548
10;554
11;554
12;553
13;551
14;555
15;552
0;551
1;546
2;539
3;531
4;528
5;529
6;530
7;536
8;543
9;550
10;555
11;558
12;564
13;565
14;563
15;562
0;558
1;554
2;550
3;547
4;543
5;544
6;546
7;545
8;550
9;552
10;553
11;558
12;564
13;564
14;563
15;564
0;562
1;557
2;552
3;548
4;544
5;542
6;541
7;540
8;542
9;546
10;550
11;552
12;553
13;556
14;559
15;558
0;557
1;556
2;553
3;548
4;544
5;541
6;541
7;544
8;546
9;547
10;553
11;557
12;561
13;567
14;572
15;572
0;573
1;574
2;571
3;571
4;568
5;566
6;565
7;565
8;563
9;558
10;558
11;563
12;565
13;572
14;578
15;580
0;582
1;583
2;583
3;578
4;571
5;568
6;561
7;558
8;559
9;562
10;567
11;573
12;582
13;588
14;591
15;591
0;591
1;594
2;592
3;588
4;582
5;575
6;572
7;568
8;566
9;565
10;564
11;565
12;571
13;576
14;582
15;585
0;587
1;584
2;581
3;578
4;576
5;571
6;563
7;556
8;551
9;546
10;545
11;546
12;551
13;553
14;553
15;560
0;561
1;560
2;558
3;555
4;553
5;547
6;542
7;535
8;528
9;526
10;525
11;529
12;532
13;533
14;533
15;532
0;532
1;530
2;528
3;529
4;528
5;525
6;518
7;514
8;508
9;503
10;500
11;499
12;498
13;496
14;497
15;500
0;499
1;499
2;499
3;495
4;493
5;495
6;493
7;487
8;484
9;482
10;476
11;471
12;468
13;464
14;464
15;471
0;478
1;484
2;492
3;495
4;493
5;491
6;488
7;483
8;476
9;473
10;474
11;477
12;478
13;479
14;480
15;482
0;483
1;485
2;489
3;493
4;495
5;495
6;494
7;491
8;486
9;481
10;479
11;480
12;478
13;478
14;479
15;483
0;489
1;493
2;493
3;496
4;498
5;497
6;496
7;495
8;494
9;491
10;489
11;489
12;490
13;491
14;493
15;496
0;496
1;499
2;501
3;503
4;505
5;506
6;504
7;502
8;502
9;498
10;493
11;490
12;487
13;486
14;487
15;487
0;491
1;497
2;503
3;505
4;509
5;514
6;515
7;515
8;514
9;512
10;506
11;503
12;501
13;499
14;497
15;496
0;496
1;495
2;499
3;508
4;512
5;519
6;525
7;526
8;524
9;521
10;520
11;514
12;509
13;505
14;500
15;501
0;501
1;501
2;503
3;507
4;512
5;517
6;527
7;532
8;529
9;530
10;530
11;526
12;522
13;520
14;519
15;515
0;513
1;512
2;513
3;514
4;517
5;520
6;528
7;534
8;536
9;532
10;528
11;524
12;518
13;513
14;512
15;512
0;514
1;517
2;517
3;518
4;521
5;524
6;526
7;529
8;531
9;528
10;527
11;526
12;524
13;521
14;518
15;514
0;513
1;513
2;512
3;512
4;514
5;518
6;522
7;525
8;528
9;531
10;533
11;533
12;533
13;530
14;525
15;521
0;518
1;515
2;514
3;515
4;515
5;521
6;524
7;524
8;527
9;530
10;530
11;528
12;528
13;531
14;529
15;523
0;517
1;511
2;510
3;514
4;520
5;527
6;532
7;536
8;540
9;543
10;547
11;550
12;549
13;547
14;542
15;537
0;534
1;530
2;528
3;530
4;530
5;531
6;534
7;537
8;539
9;542
10;547
11;549
12;548
13;547
14;543
15;532
0;520
1;520
2;519
3;519
4;521
5;523
6;525
7;531
8;539
9;542
10;545
11;549
12;552
13;552
14;553
15;556
0;556
1;553
2;549
3;541
4;536
5;536
6;534
7;536
8;537
9;539
10;545
11;546
12;554
13;555
14;551
15;548
0;538
1;528
2;523
3;519
4;524
5;532
6;533
7;531
8;529
9;529
10;529
11;532
12;532
13;530
14;527
15;526
0;524
1;517
2;509
3;506
4;500
5;496
6;497
7;502
8;508
9;512
10;514
11;517
12;522
13;522
14;519
15;516
0;515
1;512
2;508
3;503
4;496
5;488
6;489
7;492
8;497
9;504
10;503
11;503
12;503
13;503
14;506
15;510
0;517
1;519
2;514
3;506
4;500
5;494
6;489
7;487
8;487
9;488
10;491
11;495
12;503
13;511
14;516
15;520
0;521
1;520
2;515
3;508
4;502
5;496
6;486
7;481
8;481
9;481
10;478
11;483
12;490
13;496
14;503
15;508
0;510
1;512
2;510
3;506
4;501
5;496
6;491
7;488
8;486
9;486
10;483
11;487
12;490
13;493
14;496
15;502
0;506
1;510
2;513
3;512
4;509
5;505
6;501
7;497
8;494
9;494
10;498
11;505
12;514
13;525
14;539
15;558
0;579
1;598
2;612
3;628
4;647
5;666
6;684
7;704
8;722
9;741
10;761
11;782
12;797
13;815
14;831
15;841
0;848
1;846
2;833
3;809
4;780
5;748
6;712
7;671
8;627
9;579
10;534
11;492
12;458
13;431
14;409
15;390
0;378
1;370
2;365
3;360
4;356
5;356
6;354
7;353
8;353
9;349
10;348
11;353
12;360
13;368
14;376
15;384
0;392
1;400
2;411
3;418
4;422
5;423
6;432
7;435
8;435
9;433
10;432
11;434
12;438
13;443
14;445
15;452
0;463
1;471
2;480
3;490
4;496
5;497
6;498
7;496
8;491
9;484
10;480
11;476
12;476
13;478
14;475
15;472
0;480
1;485
2;488
3;492
4;499
5;502
6;507
7;510
8;503
9;499
10;499
11;494
12;486
13;482
14;478
15;478
0;482
1;487
2;491
3;494
4;500
5;502
6;502
7;501
8;500
9;497
10;492
11;488
12;485
13;483
14;484
15;487
0;488
1;489
2;492
3;493
4;496
5;501
6;504
7;504
8;503
9;503
10;498
11;491
12;487
13;482
14;482
15;483
0;484
1;487
2;489
3;492
4;497
5;502
6;507
7;510
8;511
9;511
10;510
11;507
12;502
13;499
14;496
15;496
0;497
1;499
2;503
3;508
4;510
5;514
6;519
7;524
8;523
9;521
10;521
11;517
12;513
13;508
14;504
15;500
0;500
1;506
2;508
3;511
4;514
5;518
6;524
7;528
8;529
9;530
10;530
11;529
12;526
13;522
14;518
15;513
0;511
1;514
2;514
3;515
4;515
5;516
6;521
7;529
8;538
9;544
10;547
11;546
12;542
13;538
14;537
15;535
0;536
1;537
2;537
3;536
4;539
5;542
6;546
7;557
8;565
9;568
10;566
11;563
12;560
13;552
14;544
15;542
0;539
1;538
2;535
3;531
4;531
5;534
6;538
7;542
8;547
9;548
10;546
11;548
12;552
13;551
14;546
15;541
0;538
1;534
2;531
3;531
4;531
5;528
6;529
7;532
8;536
9;543
10;547
11;549
12;548
13;548
14;544
15;539
0;531
1;520
2;512
3;506
4;502
5;504
6;504
7;508
8;512
9;512
10;513
11;517
12;515
13;510
14;505
15;499
0;491
1;485
2;483
3;483
4;484
5;483
6;483
7;483
8;485
9;485
10;488
11;491
12;492
13;490
14;487
15;483
0;479
1;474
2;469
3;464
4;460
5;457
6;458
7;460
8;467
9;473
10;478
11;481
12;484
13;485
14;484
15;480
0;477
1;472
2;470
3;467
4;462
5;456
6;453
7;454
8;458
9;465
10;472
11;479
12;485
13;488
14;487
15;483
0;481
1;479
2;477
3;472
4;470
5;467
6;467
7;467
8;467
9;469
10;476
11;482
12;487
13;491
14;492
15;496
0;497
1;494
2;487
3;480
4;476
5;472
6;470
7;471
8;472
9;472
10;476
11;481
12;484
13;487
14;491
15;493
0;493
1;492
2;490
3;485
4;477
5;475
6;477
7;480
8;481
9;478
10;481
11;485
12;490
13;496
14;499
15;502
0;506
1;508
2;507
3;503
4;498
5;493
6;489
7;485
8;484
9;485
10;486
11;492
12;502
13;506
14;511
15;518
0;521
1;519
2;515
3;511
4;505
5;502
6;496
7;492
8;491
9;493
10;495
11;495
12;495
13;502
14;508
15;511
0;511
1;516
2;518
3;520
4;519
5;516
6;510
7;504
8;501
9;500
10;501
11;501
12;502
13;508
14;512
15;518
0;522
1;523
2;518
3;515
4;516
5;515
6;515
7;514
8;509
9;502
10;498
11;499
12;500
13;502
14;506
15;508
0;514
1;518
2;518
3;519
4;521
5;522
6;519
7;516
8;515
9;515
10;514
11;512
12;509
13;510
14;512
15;516
0;519
1;520
2;521
3;521
4;519
5;518
6;514
7;510
8;508
9;504
10;504
11;501
12;498
13;499
14;506
15;512
0;514
1;519
2;522
3;530
4;532
5;532
6;528
7;519
8;512
9;507
10;503
11;504
12;506
13;504
14;502
15;505
0;515
1;519
2;524
3;530
4;530
5;527
6;525
7;521
8;515
9;510
10;507
11;500
12;498
13;502
14;507
15;511
0;513
1;515
2;518
3;518
4;518
5;520
6;525
7;529
8;529
9;529
10;529
11;526
12;520
13;516
14;514
15;509
0;507
1;509
2;510
3;514
4;518
5;522
6;523
7;522
8;520
9;517
10;513
11;507
12;505
13;504
14;506
15;508
0;509
1;512
2;517
3;522
4;530
5;536
6;539
7;538
8;540
9;539
10;537
11;535
12;532
13;529
14;526
15;523
0;525
1;526
2;528
3;532
4;534
5;535
6;539
7;540
8;540
9;540
10;538
11;532
12;526
13;519
14;512
15;519
0;529
1;534
2;537
3;545
4;550
5;556
6;564
7;569
8;571
9;572
10;570
11;567
12;559
13;556
14;550
15;543
0;538
1;536
2;536
3;536
4;540
5;542
6;543
7;544
8;544
9;541
10;540
11;538
12;532
13;526
14;518
15;514
0;512
1;510
2;509
3;507
4;507
5;510
6;514
7;518
8;524
9;527
10;524
11;518
12;512
13;505
14;500
15;496
0;487
1;482
2;486
3;487
4;490
5;493
6;502
7;505
8;507
9;510
10;508
11;506
12;508
13;509
14;506
15;502
0;498
1;498
2;498
3;496
4;494
5;493
6;499
7;503
8;505
9;508
10;509
11;515
12;515
13;513
14;507
15;501
0;495
1;498
2;502
3;501
4;499
5;498
6;502
7;504
8;504
9;506
10;508
11;508
12;510
13;510
14;507
15;504
0;499
1;493
2;487
3;487
4;489
5;492
6;494
7;495
8;497
9;498
10;502
11;506
12;507
13;507
14;512
15;512
0;507
1;505
2;503
3;498
4;496
5;496
6;495
7;495
8;500
9;502
10;504
11;508
12;511
13;512
14;512
15;513
0;510
1;505
2;502
3;502
4;504
5;510
6;515
7;525
8;540
9;559
10;581
11;605
12;628
13;649
14;668
15;686
0;707
1;724
2;740
3;755
4;769
5;784
6;803
7;818
8;822
9;826
10;823
11;813
12;793
13;768
14;737
15;703
0;669
1;628
2;585
3;542
4;503
5;466
6;433
7;406
8;385
9;374
10;368
11;362
12;358
13;360
14;361
15;360
0;360
1;359
2;357
3;359
4;367
5;376
6;380
7;384
8;390
9;396
10;400
11;405
12;413
13;420
14;429
15;436
0;443
1;450
2;451
3;452
4;451
5;452
6;454
7;457
8;462
9;468
10;473
11;479
12;482
13;487
14;490
15;494
0;496
1;497
2;496
3;492
4;496
5;501
6;500
7;497
8;496
9;495
10;496
11;500
12;502
13;504
14;507
15;510
0;509
1;510
2;511
3;512
4;510
5;503
6;502
7;499
8;497
9;496
10;496
11;496
12;498
13;501
14;507
15;512
0;516
1;518
2;519
3;521
4;522
5;520
6;517
7;512
8;506
9;503
10;502
11;500
12;499
13;504
14;508
15;511
0;516
1;520
2;521
3;522
4;522
5;519
6;513
7;510
8;506
9;502
10;500
11;499
12;500
13;501
14;508
15;513
0;518
1;522
2;523
3;523
4;523
5;523
6;519
7;513
8;510
9;507
10;503
11;503
12;503
13;503
14;508
15;515
0;519
1;521
2;525
3;529
4;530
5;532
6;529
7;525
8;522
9;521
10;523
11;518
12;513
13;506
14;513
15;517
0;524
1;532
2;540
3;546
4;545
5;542
6;541
7;539
8;536
9;532
10;532
11;532
12;533
13;531
14;530
15;530
0;533
1;541
2;548
3;554
4;560
5;560
6;560
7;559
8;554
9;550
10;547
11;544
12;543
13;542
14;543
15;542
0;543
1;548
2;553
3;560
4;566
5;568
6;569
7;571
8;569
9;564
10;560
11;557
12;554
13;555
14;557
15;556
0;556
1;558
2;561
3;563
4;565
5;567
6;568
7;568
8;568
9;564
10;559
11;553
12;550
13;547
14;544
15;541
0;538
1;537
2;540
3;543
4;546
5;551
6;557
7;559
8;558
9;556
10;549
11;541
12;531
13;519
14;513
15;512
0;510
1;510
2;512
3;514
4;516
5;519
6;522
7;522
8;521
9;518
10;512
11;508
12;503
13;498
14;492
15;488
0;486
1;485
2;483
3;484
4;489
5;493
6;494
7;493
8;490
9;491
10;488
11;481
12;476
13;464
14;455
15;450
0;449
1;453
2;457
3;460
4;459
5;461
6;467
7;477
8;485
9;484
10;481
11;478
12;476
13;478
14;478
15;472
0;467
1;472
2;475
3;472
4;472
5;473
6;471
7;472
8;477
9;480
10;482
11;482
12;480
13;477
14;471
15;471
0;471
1;469
2;470
3;472
4;478
5;482
6;485
7;487
8;489
9;491
10;492
11;491
12;491
13;489
14;486
15;485
0;484
1;482
2;479
3;478
4;477
5;478
6;482
7;487
8;491
9;495
10;496
11;495
12;495
13;494
14;490
15;486
0;483
1;479
2;475
3;475
4;474
5;476
6;481
7;488
8;493
9;497
10;503
11;501
12;499
13;500
14;498
15;493
0;489
1;489
2;491
3;490
4;494
5;499
6;497
7;496
8;494
9;494
10;503
11;513
12;521
13;521
14;517
15;517
0;518
1;511
2;505
3;500
4;495
5;494
6;494
7;496
8;502
9;509
10;512
11;516
12;519
13;522
14;519
15;514
0;513
1;508
2;503
3;498
4;494
5;493
6;493
7;494
8;499
9;506
10;511
11;515
12;518
13;519
14;518
15;516
0;513
1;507
2;501
3;498
4;496
5;494
6;494
7;496
8;498
9;503
10;505
11;508
12;511
13;513
14;514
15;512
0;511
1;508
2;506
3;502
4;497
5;493
6;492
7;494
8;496
9;499
10;507
11;511
12;512
13;516
14;516
15;517
0;516
1;514
2;512
3;508
4;503
5;499
6;497
7;498
8;498
9;500
10;502
11;507
12;510
13;509
14;512
15;513
0;511
1;511
2;513
3;512
4;509
5;506
6;499
7;493
8;490
9;482
10;483
11;495
12;508
13;515
14;516
15;516
0;516
1;520
2;520
3;517
4;513
5;511
6;509
7;504
8;498
9;494
10;487
11;487
12;495
13;502
14;508
15;514
0;516
1;519
2;524
3;522
4;517
5;512
6;509
7;503
8;498
9;495
10;494
11;498
12;502
13;507
14;511
15;519
0;526
1;529
2;528
3;527
4;524
5;519
6;514
7;510
8;508
9;505
10;504
11;503
12;503
13;507
14;511
15;516
0;522
1;526
2;528
3;529
4;529
5;528
6;525
7;521
8;517
9;515
10;516
11;519
12;520
13;522
14;526
15;531
0;536
1;539
2;540
3;539
4;537
5;535
6;531
7;524
8;519
9;512
10;508
11;508
12;509
13;509
14;513
15;516
0;518
1;520
2;527
3;533
4;536
5;541
6;540
7;539
8;539
9;539
10;536
11;535
12;540
13;541
14;536
15;535
0;538
1;540
2;542
3;544
4;543
5;541
6;538
7;535
8;527
9;520
10;512
11;508
12;509
13;512
14;515
15;515
0;521
1;530
2;538
3;543
4;543
5;536
6;526
7;518
8;510
9;500
10;495
11;486
12;486
13;499
14;508
15;512
0;514
1;514
2;514
3;515
4;515
5;512
6;509
7;508
8;506
9;503
10;497
11;493
12;488
13;483
14;480
15;478
0;476
1;480
2;485
3;490
4;496
5;503
6;505
7;507
8;508
9;505
10;498
11;491
12;486
13;483
14;482
15;482
0;482
1;482
2;485
3;489
4;495
5;499
6;502
7;502
8;504
9;502
10;498
11;497
12;495
13;491
14;488
15;487
0;486
1;483
2;483
3;486
4;489
5;492
6;496
7;500
8;502
9;504
10;504
11;500
12;495
13;490
14;492
15;492
0;494
1;496
2;496
3;499
4;503
5;505
6;509
7;512
8;511
9;509
10;509
11;505
12;501
13;498
14;495
15;491
0;491
1;491
2;493
3;495
4;499
5;502
6;507
7;515
8;522
9;529
10;533
11;537
12;541
13;546
14;554
15;561
0;571
1;587
2;609
3;631
4;656
5;686
6;715
7;739
8;761
9;775
10;789
11;804
12;813
13;815
14;814
15;814
0;803
1;780
2;754
3;728
4;698
5;668
6;636
7;601
8;563
9;528
10;495
11;463
12;435
13;410
14;395
15;382
0;369
1;359
2;353
3;352
4;354
5;363
6;374
7;384
8;390
9;396
10;398
11;402
12;407
13;409
14;410
15;411
0;412
1;409
2;407
3;407
4;411
5;417
6;427
7;437
8;447
9;456
10;465
11;472
12;476
13;479
14;480
15;479
0;476
1;472
2;468
3;465
4;467
5;471
6;473
7;478
8;484
9;490
10;495
11;499
12;502
13;502
14;500
15;494
0;491
1;491
2;487
3;483
4;480
5;481
6;483
7;488
8;495
9;501
10;508
11;515
12;517
13;513
14;511
15;510
0;506
1;500
2;496
3;493
4;491
5;490
6;491
7;493
8;494
9;494
10;497
11;498
12;508
13;518
14;517
15;511
0;512
1;514
2;510
3;505
4;499
5;499
6;504
7;506
8;506
9;508
10;511
11;513
12;515
13;519
14;523
15;524
0;523
1;519
2;513
3;508
4;504
5;502
6;500
7;503
8;509
9;508
10;513
11;518
12;519
13;522
14;525
15;526
0;524
1;521
2;524
3;522
4;518
5;515
6;512
7;512
8;515
9;515
10;517
11;523
12;526
13;526
14;528
15;532
0;533
1;532
2;532
3;536
4;533
5;526
6;519
7;515
8;517
9;518
10;518
11;520
12;521
13;524
14;530
15;535
0;542
1;544
2;543
3;540
4;536
5;538
6;536
7;531
8;526
9;525
10;524
11;524
12;528
13;534
14;543
15;551
0;556
1;558
2;559
3;559
4;556
5;551
6;547
7;544
8;543
9;540
10;539
11;541
12;541
13;543
14;548
15;550
0;551
1;549
2;547
3;546
4;546
5;551
6;549
7;547
8;548
9;544
10;542
11;541
12;540
13;540
14;543
15;545
0;543
1;547
2;548
3;546
4;545
5;543
6;538
7;533
8;530
9;526
10;520
11;517
12;514
13;512
14;513
15;520
0;526
1;528
2;532
3;530
4;522
5;522
6;519
7;512
8;508
9;502
10;496
11;491
12;489
13;487
14;483
15;483
0;486
1;488
2;492
3;495
4;496
5;495
6;492
7;484
8;479
9;477
10;472
11;467
12;465
13;465
14;464
15;467
0;468
1;470
2;471
3;471
4;472
5;472
6;472
7;471
8;466
9;462
10;460
11;457
12;453
13;453
14;453
15;454
0;457
1;463
2;467
3;471
4;475
5;476
6;476
7;475
8;471
9;465
10;461
11;458
12;457
13;455
14;455
15;455
0;455
1;459
2;464
3;466
4;469
5;473
6;474
7;475
8;475
9;472
10;469
11;464
12;459
13;452
14;450
15;448
0;448
1;451
2;457
3;466
4;474
5;484
6;492
7;492
8;488
9;480
10;476
11;475
12;470
13;470
14;465
15;465
0;467
1;469
2;475
3;479
4;481
5;483
6;485
7;485
8;484
9;484
10;482
11;479
12;475
13;472
14;467
15;466
0;468
1;468
2;469
3;472
4;478
5;482
6;487
7;491
8;489
9;489
10;489
11;486
12;481
13;477
14;473
15;471
0;472
1;473
2;476
3;482
4;486
5;491
6;495
7;498
8;502
9;504
10;507
11;505
12;501
13;498
14;494
15;493
0;492
1;491
2;489
3;489
4;492
5;495
6;499
7;503
8;506
9;508
10;510
11;509
12;508
13;503
14;500
15;499
0;497
1;496
2;496
3;497
4;498
5;501
6;504
7;509
8;515
9;519
10;520
11;521
12;518
13;513
14;507
15;501
0;496
1;492
2;494
3;496
4;498
5;502
6;508
7;513
8;515
9;519
10;521
11;520
12;516
13;512
14;510
15;509
0;508
1;506
2;504
3;502
4;504
5;508
6;512
7;518
8;520
9;519
10;519
11;514
12;510
13;509
14;508
15;512
0;510
1;507
2;504
3;503
4;502
5;501
6;498
7;501
8;508
9;513
10;519
11;524
12;527
13;527
14;527
15;520
0;509
1;501
2;497
3;494
4;494
5;496
6;496
7;498
8;500
9;505
10;513
11;519
12;522
13;522
14;522
15;521
0;519
1;513
2;507
3;501
4;498
5;496
6;494
7;494
8;499
9;502
10;504
11;510
12;514
13;515
14;513
15;510
0;508
1;503
2;498
3;494
4;489
5;488
6;492
7;496
8;498
9;500
10;504
11;511
12;517
13;518
14;515
15;513
0;511
1;508
2;504
3;501
4;500
5;499
6;500
7;503
8;506
9;507
10;509
11;517
12;524
13;531
14;536
15;536
0;535
1;532
2;527
3;521
4;516
5;514
6;514
7;511
8;510
9;509
10;511
11;519
12;522
13;524
14;526
15;527
0;527
1;525
2;521
3;518
4;518
5;520
6;520
7;521
8;524
9;525
10;526
11;528
12;534
13;539
14;543
15;547
0;547
1;544
2;544
3;540
4;533
5;531
6;528
7;524
8;522
9;520
10;520
11;522
12;525
13;525
14;527
15;530
0;531
1;529
2;527
3;525
4;520
5;515
6;509
7;503
8;499
9;497
10;494
11;490
12;490
13;491
14;493
15;495
0;494
1;494
2;498
3;498
4;496
5;492
6;488
7;482
8;477
9;473
10;473
11;474
12;475
13;475
14;476
15;478
0;482
1;486
2;488
3;490
4;490
5;488
6;483
7;479
8;474
9;470
10;474
11;478
12;479
13;481
14;485
15;488
0;492
1;496
2;499
3;500
4;500
5;499
6;495
7;492
8;489
9;486
10;481
11;481
12;484
13;483
14;485
15;490
0;494
1;499
2;502
3;506
4;506
5;504
6;498
7;491
8;487
9;482
10;477
11;475
12;477
13;478
14;477
15;479
0;482
1;485
2;491
3;493
4;496
5;498
6;497
7;496
8;489
9;487
10;483
11;480
12;479
13;481
14;482
15;484
0;486
1;489
2;493
3;502
4;509
5;511
6;512
7;511
8;509
9;510
10;512
11;517
12;529
13;547
14;562
15;576
0;593
1;613
2;634
3;658
4;682
5;704
6;725
7;743
8;760
9;773
10;786
11;798
12;805
13;807
14;804
15;795
0;777
1;756
2;732
3;703
4;673
5;645
6;606
7;562
8;520
9;483
10;448
11;419
12;388
13;367
14;357
15;357
0;357
1;354
2;354
3;357
4;361
5;364
6;371
7;377
8;381
9;384
10;382
11;384
12;388
13;392
14;399
15;405
0;412
1;416
2;422
3;431
4;439
5;449
6;456
7;458
8;458
9;462
10;465
11;467
12;471
13;475
14;476
15;476
0;477
1;480
2;483
3;487
4;491
5;494
6;498
7;501
8;503
9;504
10;505
11;505
12;501
13;498
14;495
15;493
0;492
1;491
2;493
3;498
4;503
5;509
6;513
7;517
8;521
9;523
10;524
11;521
12;516
13;510
14;507
15;504
0;498
1;494
2;496
3;497
4;502
5;510
6;520
7;528
8;534
9;538
10;539
11;540
12;537
13;527
14;521
15;516
0;511
1;507
2;505
3;502
4;504
5;508
6;512
7;516
8;523
9;525
10;525
11;525
12;524
13;521
14;517
15;514
0;510
1;506
2;505
3;504
4;504
5;511
6;519
7;524
8;527
9;532
10;536
11;536
12;541
13;544
14;537
15;529
0;525
1;521
2;517
3;514
4;517
5;519
6;523
7;527
8;532
9;533
10;536
11;540
12;537
13;534
14;530
15;527
0;522
1;520
2;520
3;524
4;529
5;533
6;536
7;543
8;549
9;552
10;555
11;556
12;556
13;555
14;555
15;554
0;549
1;548
2;546
3;543
4;541
5;543
6;543
7;543
8;546
9;553
10;560
11;568
12;569
13;565
14;563
15;564
0;562
1;558
2;553
3;552
4;554
5;556
6;557
7;558
8;560
9;561
10;564
11;568
12;573
13;577
14;578
15;579
0;577
1;572
2;567
3;564
4;560
5;556
6;552
7;553
8;556
9;560
10;564
11;567
12;571
13;572
14;572
15;568
0;566
1;564
2;556
3;548
4;542
5;537
6;535
7;533
8;529
9;527
10;531
11;533
12;530
13;529
14;531
15;532
0;531
1;536
2;531
3;520
4;511
5;503
6;497
7;496
8;495
9;499
10;499
11;505
12;508
13;510
14;511
15;510
0;508
1;507
2;503
3;495
4;486
5;479
6;475
7;471
8;469
9;469
10;468
11;467
12;467
13;470
14;475
15;476
0;476
1;472
2;469
3;466
4;462
5;459
6;457
7;454
8;450
9;450
10;452
11;454
12;458
13;463
14;469
15;470
0;471
1;472
2;471
3;470
4;467
5;460
6;457
7;454
8;453
9;452
10;452
11;452
12;455
13;459
14;461
15;466
0;473
1;478
2;480
3;479
4;474
5;469
6;465
7;461
8;458
9;456
10;455
11;456
12;457
13;460
14;464
15;470
0;476
1;479
2;478
3;477
4;478
5;476
6;470
7;468
8;467
9;465
10;464
11;464
12;466
13;466
14;470
15;476
0;480
1;481
2;481
3;482
4;483
5;480
6;475
7;472
8;471
9;468
10;466
11;466
12;470
13;474
14;480
15;486
0;489
1;493
2;496
3;497
4;495
5;494
6;493
7;488
8;480
9;471
10;466
11;466
12;472
13;480
14;483
15;492
0;501
1;506
2;509
3;509
4;507
5;504
6;502
7;500
8;498
9;502
10;506
11;502
12;499
13;496
14;497
15;501
0;504
1;507
2;512
3;517
4;519
5;515
6;514
7;513
8;511
9;506
10;499
11;497
12;494
13;493
14;491
15;492
0;499
1;507
2;511
3;515
4;519
5;522
6;522
7;521
8;518
9;513
10;509
11;506
12;502
13;503
14;505
15;506
0;504
1;511
2;517
3;520
4;523
5;525
6;525
7;524
8;524
9;525
10;524
11;520
12;516
13;509
14;506
15;507
0;508
1;509
2;514
3;519
4;525
5;532
6;535
7;532
8;530
9;529
10;524
11;515
12;512
13;508
14;502
15;498
0;497
1;497
2;499
3;504
4;509
5;514
6;520
7;525
8;525
9;523
10;520
11;514
12;511
13;510
14;512
15;513
0;515
1;518
2;515
3;516
4;518
5;521
6;523
7;524
8;523
9;523
10;520
11;521
12;532
13;530
14;525
15;521
0;519
1;519
2;515
3;515
4;518
5;524
6;528
7;533
8;537
9;537
10;534
11;529
12;525
13;521
14;517
15;514
0;509
1;506
2;508
3;507
4;507
5;509
6;513
7;517
8;519
9;520
10;519
11;519
12;518
13;515
14;511
15;509
0;506
1;504
2;504
3;505
4;507
5;511
6;518
7;523
8;530
9;536
10;538
11;540
12;540
13;538
14;532
15;527
0;522
1;517
2;515
3;513
4;513
5;516
6;520
7;525
8;528
9;530
10;531
11;531
12;530
13;529
14;526
15;524
0;523
1;523
2;525
3;529
4;533
5;535
6;539
7;546
8;550
9;553
10;555
11;557
12;556
13;552
14;548
15;542
0;536
1;533
2;529
3;526
4;524
5;522
6;521
7;524
8;531
9;537
10;543
11;545
12;543
13;540
14;537
15;533
0;526
1;519
2;515
3;511
4;507
5;505
6;503
7;504
8;506
9;508
10;509
11;511
12;513
13;513
14;515
15;516
0;514
1;509
2;504
3;496
4;490
5;487
6;485
7;480
8;480
9;486
10;494
11;502
12;507
13;511
14;513
15;513
0;512
1;505
2;499
3;494
4;491
5;489
6;488
7;488
8;484
9;484
10;492
11;495
12;497
13;509
14;513
15;513
0;512
1;511
2;505
3;501
4;496
5;491
6;488
7;487
8;483
9;483
10;489
11;497
12;500
13;504
14;505
15;505
0;502
1;501
2;499
3;496
4;494
5;492
6;490
7;487
8;486
9;485
10;488
11;493
12;499
13;507
14;512
15;515
0;514
1;512
2;509
3;503
4;498
5;496
6;494
7;491
8;492
9;494
10;497
11;501
12;502
13;501
14;505
15;508
0;509
1;509
2;510
3;515
4;517
5;519
6;521
7;526
8;534
9;546
10;559
11;574
12;592
13;614
14;635
15;660
0;686
1;708
2;728
3;746
4;763
5;773
6;782
7;794
8;803
9;807
10;811
11;810
12;803
13;785
14;762
15;734
0;704
1;675
2;639
3;599
4;558
5;517
6;478
7;446
8;419
9;396
10;380
11;369
12;360
13;356
14;359
15;361
0;366
1;372
2;372
3;372
4;380
5;389
6;393
7;393
8;393
9;391
10;391
11;394
12;401
13;412
14;420
15;431
0;438
1;446
2;453
3;458
4;464
5;470
6;473
7;473
8;467
9;467
10;472
11;475
12;478
13;479
14;480
15;485
0;490
1;494
2;498
3;504
4;511
5;511
6;505
7;498
8;502
9;508
10;508
11;506
12;505
13;505
14;504
15;509
0;517
1;525
2;532
3;536
4;538
5;535
6;528
7;521
8;514
9;510
10;508
11;508
12;509
13;510
14;510
15;510
0;512
1;517
2;522
3;527
4;530
5;528
6;527
7;525
8;521
9;517
10;512
11;509
12;508
13;508
14;505
15;505
0;509
1;517
2;522
3;527
4;533
5;534
6;533
7;533
8;533
9;528
10;524
11;521
12;518
13;515
14;513
15;511
0;510
1;512
2;517
3;519
4;523
5;526
6;529
7;530
8;526
9;525
10;521
11;516
12;513
13;513
14;513
15;513
0;513
1;514
2;520
3;526
4;527
5;529
6;531
7;532
8;534
9;535
10;534
11;531
12;527
13;523
14;520
15;520
0;521
1;519
2;518
3;516
4;519
5;524
6;528
7;534
8;537
9;541
10;542
11;536
12;531
13;529
14;527
15;526
0;524
1;526
2;525
3;529
4;536
5;544
6;551
7;555
8;558
9;556
10;551
11;547
12;537
13;531
14;532
15;532
0;535
1;539
2;539
3;536
4;536
5;541
6;545
7;549
8;554
9;557
10;553
11;551
12;548
13;545
14;541
15;533
0;526
1;521
2;521
3;521
4;528
5;537
6;541
7;542
8;540
9;535
10;535
11;535
12;532
13;526
14;522
15;516
0;512
1;508
2;502
3;498
4;494
5;494
6;501
7;505
8;509
9;510
10;508
11;504
12;498
13;496
14;489
15;481
0;473
1;465
2;461
3;458
4;455
5;450
6;450
7;453
8;455
9;459
10;462
11;463
12;465
13;466
14;464
15;459
0;454
1;451
2;449
3;447
4;446
5;446
6;449
7;453
8;456
9;458
10;458
11;460
12;460
13;457
14;453
15;446
0;439
1;433
2;430
3;428
4;426
5;427
6;427
7;427
8;427
9;429
10;435
11;440
12;443
13;444
14;445
15;442
0;435
1;426
2;422
3;423
4;425
5;429
6;433
7;435
8;435
9;434
10;435
11;438
12;443
13;442
14;441
15;441
0;438
1;430
2;424
3;418
4;413
5;410
6;411
7;411
8;411
9;410
10;406
11;404
12;412
13;415
14;415
15;413
0;411
1;408
2;403
3;400
4;396
5;392
6;392
7;393
8;393
9;394
10;397
11;398
12;399
13;399
14;398
15;394
0;390
1;391
2;392
3;386
4;381
5;377
6;376
7;378
8;379
9;377
10;380
11;383
12;383
13;385
14;385
15;385
0;384
1;386
2;385
3;382
4;377
5;374
6;370
7;366
8;363
9;362
10;364
11;366
12;371
13;376
14;379
15;383
0;384
1;384
2;382
3;377
4;373
5;371
6;368
7;366
8;364
9;364
10;365
11;368
12;375
13;380
14;383
15;387
0;390
1;388
2;385
3;383
4;380
5;374
6;367
7;363
8;361
9;364
10;366
11;369
12;376
13;383
14;388
15;394
0;399
1;400
2;397
3;390
4;386
5;382
6;380
7;379
8;380
9;381
10;383
11;384
12;385
13;388
14;393
15;399
0;405
1;410
2;413
3;414
4;415
5;412
6;407
7;403
8;400
9;398
10;397
11;395
12;393
13;396
14;403
15;408
0;413
1;416
2;416
3;421
4;423
5;422
6;418
7;413
8;409
9;402
10;396
11;395
12;400
13;408
14;414
15;417
0;420
1;424
2;428
3;429
4;432
5;431
6;431
7;428
8;421
9;415
10;410
11;407
12;408
13;413
14;419
15;426
0;431
1;433
2;435
3;437
4;435
5;438
6;437
7;433
8;429
9;425
10;421
11;418
12;419
13;420
14;420
15;423
0;428
1;433
2;441
3;450
4;452
5;445
6;440
7;438
8;433
9;428
10;429
11;426
12;423
13;424
14;426
15;430
0;434
1;441
2;448
3;456
4;464
5;466
6;466
7;467
8;467
9;463
10;460
11;457
12;455
13;454
14;455
15;457
0;460
1;463
2;468
3;471
4;475
5;479
6;479
7;477
8;476
9;473
10;468
11;464
12;461
13;460
14;460
15;464
0;468
1;475
2;483
3;489
4;495
5;502
6;510
7;513
8;514
9;516
10;515
11;511
12;512
13;511
14;509
15;508
0;511
1;515
2;515
3;520
4;526
5;533
6;540
7;537
8;534
9;529
10;524
11;521
12;521
13;518
14;513
15;510
0;512
1;513
2;512
3;515
4;519
5;521
6;525
7;527
8;525
9;518
10;508
11;503
12;498
13;487
14;475
15;470
0;476
1;484
2;489
3;494
4;496
5;500
6;505
7;508
8;509
9;509
10;508
11;507
12;502
13;496
14;490
15;486
0;488
1;494
2;494
3;494
4;497
5;504
6;509
7;511
8;514
9;517
10;520
11;524
12;526
13;521
14;513
15;509
0;508
1;508
2;513
3;516
4;520
5;527
6;533
7;536
8;540
9;542
10;542
11;543
12;540
13;536
14;532
15;528
0;524
1;522
2;523
3;527
4;530
5;533
6;539
7;543
8;549
9;553
10;557
11;558
12;556
13;554
14;551
15;545
0;544
1;542
2;542
3;542
4;542
5;541
6;543
7;550
8;555
9;558
10;566
11;573
12;573
13;571
14;566
15;561
0;557
1;555
2;555
3;553
4;551
5;550
6;554
7;561
8;577
9;590
10;600
11;613
12;625
13;637
14;647
15;659
0;673
1;686
2;698
3;715
4;738
5;763
6;787
7;812
8;836
9;855
10;872
11;890
12;903
13;908
14;911
15;905
0;890
1;867
2;836
3;798
4;756
5;720
6;681
7;644
8;609
9;581
10;554
11;530
12;505
13;484
14;467
15;452
0;440
1;430
2;423
3;421
4;421
5;422
6;430
7;439
8;445
9;454
10;465
11;476
12;487
13;497
14;501
15;503
0;505
1;504
2;505
3;509
4;510
5;510
6;512
7;515
8;521
9;533
10;543
11;553
12;561
13;567
14;573
15;575
0;578
1;579
2;578
3;577
4;574
5;572
6;571
7;570
8;572
9;573
10;577
11;585
12;592
13;597
14;603
15;604
0;603
1;602
2;599
3;597
4;595
5;593
6;588
7;587
8;583
9;584
10;591
11;592
12;593
13;595
14;604
15;611
0;612
1;609
2;605
3;598
4;590
5;588
6;586
7;585
8;586
9;591
10;593
11;591
12;594
13;596
14;600
15;611
0;619
1;617
2;614
3;612
4;606
5;600
6;596
7;592
8;590
9;588
10;588
11;587
12;590
13;596
14;600
15;605
0;607
1;606
2;604
3;601
4;598
5;592
6;585
7;580
8;576
9;577
10;579
11;577
12;577
13;580
14;587
15;592
0;595
1;598
2;597
3;595
4;597
5;595
6;588
7;585
8;584
9;583
10;580
11;583
12;582
13;579
14;580
15;582
0;585
1;590
2;594
3;597
4;595
5;595
6;592
7;589
8;591
9;593
10;593
11;593
12;593
13;595
14;597
15;603
0;605
1;606
2;610
3;611
4;612
5;614
6;615
7;612
8;608
9;604
10;601
11;601
12;606
13;609
14;611
15;614
0;620
1;626
2;630
3;632
4;631
5;630
6;629
7;623
8;616
9;612
10;609
11;604
12;600
13;600
14;598
15;598
0;601
1;604
2;607
3;608
4;611
5;613
6;610
7;608
8;605
9;602
10;600
11;596
12;591
13;587
14;585
15;584
0;584
1;588
2;592
3;597
4;597
5;597
6;598
7;595
8;594
9;589
10;582
11;574
12;568
13;563
14;560
15;557
0;559
1;562
2;566
3;567
4;566
5;565
6;564
7;563
8;560
9;555
10;548
11;537
12;531
13;528
14;525
15;524
0;521
1;516
2;515
3;521
4;525
5;531
6;537
7;540
8;545
9;550
10;543
11;533
12;524
13;516
14;508
15;501
0;504
1;504
2;504
3;506
4;513
5;519
6;525
7;526
8;523
9;520
10;516
11;512
12;508
13;503
14;499
15;496
0;500
1;498
2;498
3;503
4;505
5;507
6;508
7;508
8;509
9;509
10;508
11;506
12;503
13;497
14;494
15;492
0;492
1;493
2;493
3;494
4;496
5;497
6;502
7;507
8;510
9;514
10;515
11;515
12;510
13;503
14;500
15;495
0;491
1;489
2;492
3;492
4;493
5;499
6;505
7;510
8;516
9;518
10;517
11;513
12;511
13;506
14;504
15;503
0;500
1;496
2;493
3;494
4;495
5;502
6;513
7;516
8;519
9;520
10;517
11;514
12;512
13;508
14;498
15;492
0;487
1;483
2;489
3;500
4;512
5;519
6;524
7;527
8;528
9;529
10;533
11;533
12;533
13;532
14;526
15;517
0;513
1;512
2;510
3;506
4;505
5;508
6;507
7;509
8;514
9;519
10;521
11;522
12;520
13;519
14;516
15;509
0;502
1;503
2;503
3;502
4;502
5;503
6;503
7;505
8;510
9;513
10;516
11;517
12;519
13;520
14;521
15;518
0;514
1;512
2;510
3;507
4;505
5;506
6;506
7;507
8;511
9;514
10;514
11;515
12;515
13;516
14;514
15;512
0;508
1;505
2;504
3;501
4;499
5;500
6;502
7;504
8;506
9;508
10;510
11;512
12;515
13;516
14;515
15;515
0;510
1;505
2;502
3;500
4;502
5;505
6;508
7;508
8;505
9;506
10;512
11;516
12;519
13;521
14;521
15;519
0;518
1;515
2;511
3;507
4;502
5;501
6;500
7;502
8;504
9;505
10;504
11;503
12;505
13;509
14;513
15;516
0;518
1;519
2;514
3;506
4;500
5;496
6;491
7;488
8;496
9;502
10;504
11;508
12;513
13;516
14;524
15;529
0;533
1;533
2;529
3;520
4;511
5;504
6;496
7;492
8;493
9;494
10;497
11;503
12;505
13;511
14;517
15;518
0;519
1;518
2;515
3;511
4;506
5;500
6;497
7;495
8;493
9;493
10;495
11;499
12;506
13;511
14;512
15;514
0;517
1;518
2;519
3;521
4;519
5;515
6;514
7;512
8;512
9;514
10;519
11;522
12;525
13;529
14;532
15;534
0;538
1;541
2;540
3;533
4;528
5;524
6;520
7;519
8;515
9;511
10;510
11;510
12;512
13;520
14;528
15;532
0;534
1;535
2;536
3;538
4;538
5;536
6;539
7;541
8;542
9;537
10;534
11;535
12;535
13;539
14;546
15;550
0;556
1;559
2;560
3;558
4;553
5;548
6;541
7;533
8;531
9;530
10;532
11;534
12;535
13;534
14;529
15;532
0;536
1;541
2;542
3;543
4;540
5;536
6;532
7;525
8;515
9;510
10;507
11;504
12;499
13;500
14;504
15;508
0;509
1;511
2;513
3;518
4;518
5;517
6;515
7;508
8;502
9;499
10;498
11;495
12;493
13;494
14;497
15;498
0;500
1;506
2;511
3;508
4;507
5;505
6;502
7;500
8;501
9;500
10;496
11;493
12;490
13;490
14;492
15;493
0;497
1;505
2;510
3;513
4;518
5;519
6;518
7;518
8;518
9;515
10;512
11;510
12;506
13;503
14;502
15;502
0;502
1;505
2;511
3;515
4;521
5;526
6;526
7;524
8;523
9;523
10;522
11;522
12;517
13;510
14;507
15;507
0;508
1;510
2;512
3;517
4;522
5;527
6;529
7;531
8;529
9;526
10;523
11;519
12;517
13;512
14;511
15;510
0;508
1;507
2;508
3;514
4;521
5;529
6;540
7;549
8;558
9;565
10;572
11;579
12;588
13;599
14;610
15;625
0;644
1;666
2;691
3;716
4;741
5;763
6;785
7;808
8;826
9;839
10;848
11;847
12;843
13;831
14;812
15;784
0;755
1;727
2;698
3;668
4;634
5;599
6;564
7;529
8;494
9;464
10;436
11;413
12;395
13;380
14;369
15;361
0;354
1;352
2;353
3;356
4;361
5;371
6;381
7;391
8;400
9;408
10;414
11;419
12;419
13;417
14;414
15;416
0;415
1;415
2;420
3;427
4;434
5;441
6;454
7;463
8;470
9;475
10;477
11;480
12;488
13;497
14;501
15;504
0;505
1;503
2;500
3;500
4;499
5;496
6;492
7;496
8;500
9;503
10;507
11;512
12;512
13;511
14;508
15;502
0;496
1;493
2;490
3;488
4;490
5;494
6;496
7;501
8;506
9;510
10;513
11;515
12;516
13;516
14;516
15;513
0;510
1;508
2;505
3;503
4;504
5;505
6;508
7;509
8;513
9;518
10;521
11;524
12;526
13;528
14;530
15;529
0;525
1;521
2;520
3;519
4;516
5;516
6;516
7;517
8;521
9;524
10;527
11;530
12;533
13;535
14;535
15;540
0;540
1;538
2;536
3;535
4;534
5;535
6;537
7;538
8;537
9;541
10;545
11;547
12;553
13;558
14;558
15;556
0;556
1;553
2;548
3;544
4;538
5;534
6;533
7;537
8;543
9;547
10;550
11;553
12;556
13;556
14;553
15;548
0;546
1;543
2;540
3;540
4;536
5;533
6;531
7;532
8;531
9;531
10;536
11;541
12;545
13;547
14;547
15;547
0;547
1;549
2;551
3;552
4;553
5;553
6;548
7;543
8;545
9;547
10;550
11;557
12;565
13;572
14;574
15;577
0;577
1;575
2;572
3;566
4;559
5;557
6;555
7;553
8;551
9;549
10;553
11;556
12;560
13;563
14;566
15;568
0;569
1;568
2;570
3;570
4;570
5;568
6;565
7;558
8;550
9;546
10;544
11;543
12;546
13;551
14;554
15;553
0;553
1;559
2;560
3;560
4;556
5;549
6;544
7;539
8;534
9;530
10;531
11;531
12;528
13;527
14;526
15;529
0;533
1;534
2;531
3;526
4;522
5;515
6;512
7;512
8;508
9;504
10;504
11;502
12;499
13;499
14;505
15;505
0;504
1;504
2;506
3;504
4;499
5;495
6;490
7;483
8;477
9;472
10;469
11;470
12;470
13;468
14;469
15;469
0;471
1;475
2;480
3;480
4;481
5;483
6;479
7;473
8;470
9;465
10;461
11;459
12;460
13;460
14;460
15;465
0;468
1;471
2;476
3;483
4;487
5;485
6;483
7;479
8;472
9;471
10;469
11;467
12;470
13;479
14;486
15;488
0;490
1;491
2;492
3;492
4;491
5;487
6;489
7;491
8;486
9;484
10;478
11;471
12;465
13;466
14;470
15;469
0;470
1;472
2;475
3;476
4;478
5;480
6;482
7;483
8;479
9;474
10;472
11;471
12;469
13;469
14;467
15;467
0;471
1;476
2;479
3;483
4;487
5;487
6;485
7;485
8;485
9;483
10;481
11;481
12;478
13;475
14;475
15;478
0;481
1;482
2;486
3;489
4;491
5;495
6;496
7;495
8;495
9;494
10;492
11;488
12;483
13;478
14;472
15;474
0;478
1;481
2;482
3;485
4;492
5;498
6;501
7;499
8;500
9;504
10;502
11;493
12;487
13;483
14;480
15;479
0;480
1;482
2;485
3;490
4;496
5;500
6;502
7;504
8;503
9;501
10;499
11;492
12;484
13;482
14;480
15;480
0;480
1;481
2;482
3;485
4;492
5;499
6;504
7;509
8;511
9;511
10;509
11;504
12;499
13;494
14;492
15;489
0;487
1;485
2;483
3;482
4;484
5;483
6;482
7;483
8;486
9;490
10;494
11;498
12;501
13;504
14;507
15;503
0;500
1;497
2;494
3;489
4;487
5;492
6;496
7;501
8;504
9;507
10;510
11;512
12;511
13;506
14;500
15;497
0;493
1;492
2;495
3;496
4;496
5;498
6;502
7;505
8;509
9;512
10;513
11;512
12;512
13;510
14;507
15;503
0;498
1;492
2;486
3;487
4;487
5;487
6;491
7;499
8;507
9;512
10;517
11;516
12;515
13;512
14;506
15;499
0;496
1;494
2;492
3;488
4;488
5;491
6;491
7;496
8;504
9;509
10;512
11;515
12;516
13;516
14;515
15;514
0;509
1;506
2;504
3;500
4;498
5;497
6;498
7;498
8;506
9;513
10;519
11;519
12;520
13;523
14;526
15;528
0;527
1;523
2;519
3;514
4;511
5;511
6;509
7;509
8;508
9;512
10;515
11;522
12;527
13;529
14;530
15;533
0;534
1;531
2;526
3;521
4;518
5;518
6;521
7;528
8;531
9;536
10;542
11;545
12;547
13;551
14;553
15;555
0;555
1;553
2;543
3;537
4;532
5;527
6;524
7;524
8;521
9;519
10;524
11;529
12;531
13;534
14;536
15;534
0;533
1;530
2;524
3;515
4;508
5;501
6;495
7;493
8;495
9;496
10;498
11;501
12;505
13;509
14;512
15;512
0;511
1;508
2;503
3;497
4;492
5;487
6;483
7;481
8;483
9;482
10;482
11;486
12;491
13;492
14;492
15;493
0;495
1;494
2;494
3;493
4;487
5;482
6;478
7;476
8;474
9;476
10;478
11;481
12;486
13;489
14;491
15;494
0;497
1;500
2;500
3;496
4;488
5;480
6;477
7;475
8;471
9;468
10;466
11;467
12;473
13;478
14;481
15;483
0;487
1;489
2;489
3;489
4;488
5;484
6;480
7;475
8;472
9;473
10;476
11;477
12;477
13;481
14;484
15;489
0;499
1;503
2;500
3;498
4;499
5;494
6;488
7;485
8;481
9;479
10;479
11;479
12;480
13;482
14;487
15;491
0;492
1;495
2;498
3;498
4;497
5;495
6;491
7;487
8;492
9;494
10;496
11;507
12;515
13;523
14;536
15;556
0;573
1;591
2;613
3;634
4;653
5;674
6;694
7;713
8;728
9;742
10;756
11;770
12;785
13;796
14;804
15;810
0;811
1;801
2;781
3;753
4;720
5;684
6;648
7;608
8;564
9;524
10;484
11;446
12;411
13;383
14;362
15;349
0;343
1;340
2;338
3;335
4;337
5;345
6;351
7;355
8;354
9;355
10;357
11;354
12;354
13;358
14;361
15;365
0;370
1;380
2;388
3;396
4;404
5;410
6;415
7;418
8;420
9;422
10;425
11;426
12;426
13;428
14;432
15;437
0;440
1;447
2;454
3;461
4;469
5;478
6;484
7;486
8;487
9;486
10;483
11;480
12;475
13;470
14;467
15;467
0;471
1;477
2;486
3;492
4;495
5;499
6;502
7;504
8;503
9;502
10;499
11;493
12;489
13;487
14;487
15;491
0;495
1;498
2;499
3;499
4;503
5;508
6;511
7;512
8;511
9;511
10;510
11;505
12;501
13;498
14;495
15;493
0;496
1;498
2;500
3;505
4;509
5;507
6;510
7;511
8;512
9;514
10;515
11;513
12;507
13;505
14;503
15;502
0;503
1;504
2;503
3;503
4;505
5;506
6;508
7;515
8;526
9;532
10;532
11;529
12;522
13;514
14;508
15;504
0;502
1;502
2;502
3;500
4;505
5;511
6;515
7;525
8;536
9;541
10;540
11;539
12;535
13;529
14;523
15;519
0;519
1;517
2;514
3;516
4;517
5;527
6;536
7;542
8;545
9;546
10;549
11;547
12;547
13;550
14;548
15;547
0;540
1;535
2;534
3;534
4;532
5;533
6;538
7;547
8;555
9;560
10;565
11;566
12;564
13;559
14;558
15;556
0;553
1;549
2;544
3;543
4;544
5;547
6;551
7;555
8;562
9;566
10;569
11;571
12;573
13;572
14;567
15;559
0;555
1;551
2;549
3;544
4;541
5;542
6;541
7;547
8;552
9;558
10;563
11;566
12;568
13;564
14;561
15;557
0;551
1;548
2;542
3;536
4;535
5;534
6;531
7;532
8;537
9;544
10;548
11;551
12;552
13;549
14;547
15;545
0;539
1;531
2;526
3;518
4;512
5;508
6;510
7;506
8;506
9;507
10;509
11;508
12;507
13;507
14;507
15;507
0;503
1;496
2;491
3;486
4;480
5;474
6;473
7;475
8;473
9;472
10;472
11;472
12;473
13;472
14;472
15;473
0;475
1;472
2;467
3;462
4;455
5;454
6;454
7;454
8;454
9;457
10;460
11;464
12;467
13;471
14;474
15;472
0;470
1;468
2;464
3;460
4;455
5;450
6;448
7;450
8;453
9;452
10;454
11;456
12;456
13;460
14;471
15;478
0;481
1;484
2;480
3;473
4;469
5;462
6;456
7;459
8;462
9;463
10;466
11;471
12;478
13;485
14;489
15;492
0;492
1;489
2;486
3;481
4;472
5;469
6;465
7;461
8;456
9;455
10;457
11;462
12;467
13;473
14;480
15;486
0;492
1;492
2;493
3;494
4;489
5;480
6;478
7;477
8;473
9;472
10;471
11;472
12;473
13;474
14;476
15;481
0;485
1;490
2;489
3;489
4;490
5;493
6;494
7;492
8;487
9;484
10;484
11;484
12;486
13;488
14;492
15;496
0;502
1;505
2;508
3;509
4;508
5;505
6;498
7;491
8;486
9;483
10;482
11;484
12;487
13;488
14;491
15;496
0;501
1;505
2;510
3;513
4;513
5;514
6;511
7;503
8;498
9;497
10;496
11;496
12;496
13;497
14;500
15;505
0;508
1;509
2;512
3;513
4;513
5;514
6;513
7;507
8;503
9;502
10;501
11;503
12;504
13;502
14;498
15;500
0;504
1;511
2;515
3;518
4;524
5;530
6;529
7;521
8;512
9;504
10;503
11;503
12;503
13;504
14;505
15;508
0;515
1;520
2;522
3;525
4;523
5;521
6;519
7;515
8;507
9;501
10;496
11;491
12;492
13;492
14;494
15;495
0;498
1;504
2;512
3;515
4;520
5;522
6;522
7;530
8;528
9;522
10;511
11;505
12;501
13;499
14;498
15;498
0;499
1;504
2;509
3;511
4;515
5;520
6;521
7;519
8;517
9;515
10;514
11;514
12;511
13;507
14;505
15;505
0;504
1;505
2;511
3;515
4;517
5;519
6;521
7;521
8;522
9;522
10;521
11;516
12;514
13;511
14;508
15;508
0;508
1;507
2;507
3;512
4;515
5;519
6;529
7;532
8;531
9;532
10;529
11;523
12;519
13;517
14;516
15;514
0;513
1;513
2;516
3;523
4;528
5;531
6;534
7;536
8;535
9;532
10;531
11;528
12;523
13;520
14;518
15;514
0;512
1;514
2;516
3;519
4;525
5;532
6;538
7;546
8;550
9;550
10;550
11;547
12;540
13;534
14;530
15;527
0;526
1;527
2;530
3;531
4;532
5;540
6;542
7;542
8;544
9;546
10;541
11;539
12;537
13;533
14;526
15;519
0;517
1;519
2;518
3;514
4;508
5;510
6;512
7;518
8;524
9;527
10;527
11;526
12;521
13;512
14;503
15;496
0;487
1;481
2;476
3;476
4;481
5;487
6;492
7;494
8;496
9;497
10;497
11;496
12;496
13;495
14;490
15;490
0;487
1;483
2;480
3;481
4;481
5;483
6;486
7;487
8;488
9;488
10;491
11;494
12;492
13;490
14;489
15;485
0;482
1;479
2;477
3;475
4;476
5;478
6;479
7;482
8;486
9;488
10;492
11;494
12;496
13;498
14;496
15;492
0;487
1;484
2;480
3;478
4;478
5;481
6;486
7;489
8;491
9;495
10;498
11;502
12;506
13;508
14;510
15;511
0;508
1;503
2;498
3;492
4;487
5;486
6;486
7;488
8;490
9;491
10;492
11;494
12;498
13;501
14;504
15;508
0;511
1;511
2;505
3;496
4;490
5;483
6;481
7;483
8;486
9;492
10;501
11;512
12;523
13;537
14;555
15;568
0;585
1;605
2;618
3;631
4;644
5;660
6;678
7;696
8;713
9;732
10;753
11;774
12;789
13;809
14;821
15;824
0;819
1;809
2;784
3;752
4;718
5;682
6;646
7;609
8;571
9;534
10;501
11;471
12;442
13;416
14;395
15;380
0;369
1;359
2;351
3;344
4;338
5;337
6;339
7;340
8;343
9;350
10;359
11;367
12;379
13;389
14;397
15;400
0;404
1;408
2;412
3;413
4;412
5;413
6;415
7;416
8;418
9;422
10;425
11;430
12;438
13;446
14;453
15;461
0;465
1;469
2;472
3;472
4;471
5;467
6;463
7;458
8;452
9;451
10;454
11;455
12;456
13;459
14;464
15;471
0;476
1;478
2;480
3;481
4;481
5;478
6;476
7;475
8;474
9;472
10;471
11;470
12;471
13;474
14;478
15;481
0;486
1;494
2;500
3;503
4;501
5;499
6;496
7;490
8;484
9;479
10;476
11;476
12;477
13;479
14;483
15;487
0;491
1;496
2;500
3;503
4;502
5;500
6;496
7;492
8;489
9;487
10;486
11;487
12;492
13;495
14;496
15;499
0;505
1;510
2;517
3;524
4;524
5;521
6;517
7;513
8;512
9;513
10;514
11;512
12;511
13;511
14;513
15;518
0;523
1;527
2;537
3;542
4;540
5;538
6;536
7;535
8;534
9;534
10;531
11;527
12;521
13;519
14;521
15;523
0;528
1;534
2;537
3;543
4;548
5;551
6;550
7;547
8;545
9;540
10;536
11;533
12;531
13;530
14;533
15;536
0;539
1;545
2;552
3;559
4;566
5;572
6;575
7;574
8;573
9;571
10;566
11;560
12;558
13;556
14;555
15;557
0;558
1;559
2;564
3;568
4;573
5;579
6;584
7;583
8;582
9;582
10;582
11;580
12;576
13;572
14;569
15;567
0;569
1;572
2;576
3;582
4;587
5;591
6;589
7;588
8;585
9;580
10;577
11;572
12;567
13;563
14;559
15;558
0;560
1;564
2;568
3;571
4;573
5;573
6;573
7;574
8;572
9;574
10;575
11;571
12;563
13;553
14;547
15;541
0;540
1;542
2;541
3;542
4;545
5;549
6;548
7;549
8;553
9;554
10;550
11;543
12;534
13;524
14;517
15;511
0;507
1;504
2;502
3;498
4;497
5;496
6;494
7;495
8;494
9;492
10;490
11;492
12;497
13;497
14;495
15;488
0;482
1;484
2;483
3;487
4;488
5;492
6;493
7;495
8;496
9;496
10;496
11;496
12;496
13;493
14;487
15;480
0;475
1;473
2;473
3;475
4;479
5;483
6;488
7;494
8;496
9;497
10;498
11;497
12;496
13;495
14;492
15;489
0;483
1;480
2;479
3;479
4;480
5;478
6;480
7;489
8;497
9;503
10;505
11;507
12;506
13;504
14;503
15;499
0;496
1;493
2;490
3;488
4;488
5;488
6;490
7;493
8;496
9;496
10;499
11;502
12;504
13;509
14;511
15;508
0;507
1;504
2;497
3;495
4;493
5;492
6;492
7;494
8;495
9;496
10;498
11;503
12;506
13;505
14;507
15;508
0;507
1;504
2;502
3;503
4;501
5;503
6;506
7;506
8;508
9;513
10;516
11;521
12;524
13;525
14;523
15;521
0;520
1;517
2;512
3;508
4;507
5;506
6;509
7;511
8;513
9;519
10;526
11;529
12;533
13;535
14;534
15;533
0;531
1;526
2;519
3;513
4;508
5;504
6;503
7;504
8;504
9;510
10;515
11;516
12;518
13;522
14;525
15;525
0;524
1;524
2;522
3;519
4;519
5;519
6;516
7;509
