0;543
1;544
2;543
3;540
4;537
5;533
6;527
7;519
8;515
9;518
10;524
11;522
12;524
13;531
14;541
15;547
0;555
1;561
2;560
3;555
4;549
5;540
6;531
7;525
8;517
9;513
10;514
11;518
12;520
13;525
14;530
15;536
0;541
1;548
2;554
3;556
4;552
5;550
6;543
7;536
8;529
9;521
10;519
11;520
12;519
13;524
14;529
15;534
0;539
1;547
2;553
3;553
4;551
5;547
6;542
7;535
8;529
9;526
10;524
11;520
12;520
13;521
14;524
15;532
0;540
1;547
2;553
3;558
4;558
5;555
6;554
7;551
8;546
9;541
10;538
11;538
12;544
13;547
14;547
15;550
0;552
1;555
2;560
3;565
4;573
5;578
6;581
7;579
8;572
9;564
10;561
11;558
12;554
13;550
14;551
15;556
0;564
1;569
2;572
3;577
4;579
5;576
6;575
7;573
8;566
9;556
10;551
11;543
12;540
13;539
14;543
15;543
0;546
1;550
2;554
3;560
4;564
5;564
6;559
7;554
8;548
9;540
10;531
11;522
12;515
13;512
14;513
15;515
0;513
1;511
2;515
3;516
4;521
5;524
6;522
7;522
8;520
9;514
10;505
11;496
12;487
13;480
14;475
15;472
0;471
1;469
2;477
3;486
4;487
5;491
6;494
7;493
8;491
9;488
10;480
11;469
12;464
13;457
14;451
15;447
0;445
1;441
2;441
3;452
4;461
5;465
6;470
7;471
8;467
9;465
10;463
11;456
12;451
13;445
14;440
15;435
0;434
1;435
2;437
3;440
4;446
5;453
6;460
7;467
8;472
9;475
10;479
11;482
12;480
13;476
14;470
15;464
0;460
1;460
2;461
3;462
4;463
5;467
6;470
7;472
8;476
9;475
10;476
11;475
12;470
13;465
14;463
15;457
0;455
1;457
2;462
3;463
4;464
5;467
6;467
7;466
8;470
9;477
10;484
11;495
12;503
13;501
14;491
15;483
0;472
1;462
2;460
3;458
4;456
5;462
6;467
7;471
8;479
9;485
10;489
11;489
12;485
13;481
14;473
15;467
0;461
1;458
2;459
3;463
4;467
5;471
6;476
7;483
8;490
9;497
10;500
11;502
12;503
13;503
14;501
15;497
0;497
1;488
2;478
3;473
4;471
5;469
6;471
7;476
8;480
9;487
10;495
11;502
12;507
13;509
14;507
15;499
0;492
1;486
2;480
3;474
4;475
5;479
6;476
7;476
8;479
9;483
10;491
11;503
12;513
13;523
14;524
15;518
0;507
1;496
2;487
3;481
4;477
5;476
6;481
7;485
8;488
9;491
10;496
11;505
12;515
13;519
14;516
15;514
0;507
1;495
2;487
3;484
4;483
5;481
6;481
7;482
8;488
9;495
10;501
11;508
12;514
13;518
14;518
15;515
0;512
1;506
2;503
3;505
4;506
5;504
6;504
7;497
8;492
9;497
10;503
11;508
12;513
13;517
14;519
15;521
0;521
1;517
2;511
3;507
4;501
5;496
6;491
7;491
8;492
9;493
10;499
11;507
12;516
13;527
14;535
15;538
0;540
1;537
2;526
3;514
4;504
5;496
6;492
7;490
8;491
9;492
10;497
11;500
12;504
13;510
14;520
15;526
0;526
1;526
2;523
3;517
4;508
5;498
6;490
7;489
8;495
9;500
10;506
11;507
12;509
13;513
14;518
15;525
0;528
1;530
2;527
3;518
4;517
5;514
6;507
7;500
8;499
9;500
10;501
11;505
12;512
13;519
14;526
15;534
0;539
1;537
2;537
3;536
4;532
5;526
6;520
7;514
8;508
9;506
10;504
11;504
12;508
13;516
14;523
15;531
0;540
1;547
2;551
3;550
4;549
5;545
6;540
7;541
8;536
9;533
10;535
11;537
12;539
13;544
14;549
15;551
0;556
1;560
2;562
3;561
4;556
5;552
6;547
7;544
8;540
9;536
10;532
11;526
12;519
13;512
14;512
15;520
0;536
1;547
2;553
3;548
4;538
5;528
6;514
7;501
8;492
9;484
10;480
11;479
12;479
13;479
14;481
15;486
0;492
1;497
2;504
3;508
4;510
5;508
6;505
7;500
8;492
9;495
10;488
11;475
12;468
13;472
14;475
15;481
0;490
1;494
2;497
3;500
4;502
5;503
6;503
7;500
8;493
9;486
10;478
11;470
12;467
13;468
14;471
15;477
0;486
1;494
2;502
3;507
4;508
5;509
6;511
7;509
8;505
9;500
10;496
11;497
12;494
13;494
14;495
15;492
0;491
1;494
2;500
3;508
4;514
5;516
6;516
7;516
8;513
9;504
10;499
11;501
12;501
13;502
14;502
15;499
0;501
1;502
2;504
3;505
4;506
5;508
6;504
7;503
8;504
9;502
10;497
11;491
12;486
13;486
14;485
15;485
0;485
1;489
2;500
3;511
4;516
5;520
6;524
7;528
8;531
9;536
10;544
11;551
12;557
13;568
14;583
15;602
0;624
1;647
2;682
3;713
4;737
5;755
6;773
7;784
8;793
9;802
10;807
11;803
12;794
13;784
14;766
15;740
0;711
1;684
2;658
3;633
4;605
5;577
6;551
7;524
8;493
9;464
10;438
11;412
12;390
13;374
14;358
15;345
0;339
1;342
2;348
3;358
4;367
5;376
6;386
7;399
8;408
9;414
10;419
11;420
12;413
13;410
14;409
15;408
0;415
1;420
2;424
3;431
4;442
5;452
6;460
7;467
8;473
9;476
10;485
11;500
12;509
13;501
14;494
15;487
0;486
1;485
2;487
3;489
4;490
5;492
6;499
7;501
8;503
9;508
10;507
11;517
12;526
13;519
14;512
15;505
0;499
1;495
2;498
3;499
4;497
5;493
6;496
7;502
8;505
9;506
10;505
11;504
12;507
13;511
14;512
15;504
0;499
1;501
2;499
3;500
4;504
5;505
6;510
7;515
8;519
9;522
10;523
11;519
12;523
13;526
14;525
15;522
0;519
1;519
2;517
3;514
4;513
5;511
6;511
7;516
8;524
9;531
10;539
11;543
12;541
13;538
14;532
15;524
0;518
1;517
2;513
3;510
4;511
5;513
6;511
7;513
8;520
9;528
10;533
11;536
12;536
13;540
14;546
15;551
0;547
1;537
2;526
3;517
4;512
5;510
6;511
7;513
8;518
9;523
10;525
11;530
12;537
13;537
14;540
15;544
0;547
1;543
2;541
3;534
4;529
5;526
6;524
7;517
8;516
9;524
10;532
11;538
12;544
13;550
14;550
15;550
0;549
1;546
2;541
3;536
4;529
5;521
6;517
7;518
8;524
9;528
10;534
11;540
12;545
13;543
14;547
15;556
0;561
1;561
2;555
3;549
4;543
5;535
6;530
7;530
8;532
9;536
10;549
11;561
12;568
13;572
14;572
15;575
0;576
1;577
2;574
3;568
4;563
5;557
6;551
7;545
8;547
9;549
10;551
11;551
12;556
13;564
14;570
15;572
0;571
1;571
2;571
3;565
4;557
5;549
6;542
7;537
8;535
9;538
10;540
11;542
12;547
13;552
14;557
15;558
0;558
1;554
2;551
3;546
4;534
5;521
6;510
7;501
8;495
9;490
10;487
11;489
12;493
13;499
14;504
15;506
0;506
1;505
2;504
3;508
4;504
5;491
6;481
7;477
8;480
9;483
10;481
11;473
12;470
13;470
14;472
15;479
0;486
1;489
2;487
3;481
4;478
5;470
6;464
7;456
8;445
9;440
10;444
11;449
12;449
13;453
14;458
15;462
0;467
1;472
2;477
3;473
4;471
5;470
6;463
7;458
8;452
9;447
10;442
11;442
12;444
13;447
14;454
15;462
0;467
1;470
2;476
3;482
4;483
5;484
6;482
7;472
8;463
9;462
10;454
11;446
12;444
13;443
14;447
15;453
0;461
1;468
2;477
3;483
4;483
5;484
6;486
7;482
8;476
9;472
10;467
11;463
12;461
13;461
14;462
15;465
0;470
1;473
2;476
3;483
4;488
5;489
6;487
7;487
8;487
9;488
10;488
11;478
12;468
13;469
14;471
15;474
0;478
1;480
2;485
3;493
4;497
5;503
6;512
7;513
8;507
9;500
10;490
11;481
12;474
13;473
14;478
15;476
0;479
1;487
2;495
3;505
4;514
5;516
6;512
7;512
8;514
9;508
10;500
11;492
12;486
13;481
14;482
15;483
0;484
1;492
2;500
3;509
4;519
5;521
6;521
7;519
8;519
9;516
10;509
11;499
12;490
13;485
14;490
15;492
0;494
1;494
2;496
3;499
4;508
5;523
6;532
7;536
8;538
9;538
10;533
11;525
12;520
13;511
14;505
15;502
0;502
1;501
2;504
3;510
4;516
5;522
6;528
7;532
8;536
9;537
10;533
11;527
12;518
13;510
14;502
15;495
0;492
1;497
2;504
3;512
4;521
5;525
6;529
7;534
8;537
9;534
10;529
11;527
12;520
13;513
14;506
15;499
0;494
1;491
2;489
3;487
4;492
5;505
6;513
7;523
8;531
9;535
10;536
11;532
12;529
13;523
14;515
15;506
0;496
1;489
2;491
3;495
4;499
5;508
6;517
7;524
8;533
9;537
10;536
11;534
12;527
13;515
14;504
15;493
0;485
1;482
2;482
3;482
4;486
5;492
6;499
7;505
8;510
9;517
10;520
11;518
12;515
13;512
14;504
15;502
0;498
1;488
2;482
3;477
4;475
5;486
6;495
7;498
8;502
9;508
10;513
11;514
12;515
13;518
14;518
15;511
0;507
1;502
2;497
3;498
4;498
5;500
6;504
7;512
8;520
9;529
10;536
11;537
12;540
13;538
14;530
15;519
0;513
1;509
2;510
3;512
4;510
5;506
6;506
7;512
8;520
9;526
10;532
11;543
12;551
13;553
14;556
15;554
0;551
1;549
2;543
3;535
4;528
5;524
6;521
7;518
8;525
9;533
10;537
11;543
12;548
13;549
14;549
15;549
0;543
1;531
2;522
3;514
4;509
5;510
6;511
7;511
8;512
9;515
10;524
11;530
12;534
13;536
14;534
15;533
0;531
1;521
2;511
3;501
4;492
5;485
6;481
7;480
8;481
9;487
10;493
11;498
12;499
13;503
14;507
15;507
0;508
1;507
2;501
3;497
4;493
5;487
6;482
7;477
8;470
9;466
10;472
11;483
12;490
13;499
14;508
15;510
0;507
1;500
2;494
3;487
4;482
5;476
6;469
7;464
8;463
9;464
10;466
11;475
12;490
13;494
14;499
15;504
0;506
1;510
2;507
3;497
4;491
5;486
6;480
7;474
8;470
9;470
10;472
11;477
12;483
13;486
14;494
15;500
0;499
1;497
2;497
3;492
4;488
5;482
6;472
7;465
8;464
9;462
10;462
11;464
12;471
13;480
14;496
15;505
0;509
1;510
2;512
3;512
4;507
5;498
6;492
7;485
8;477
9;473
10;476
11;480
12;486
13;492
14;501
15;510
0;520
1;528
2;537
3;545
4;553
5;562
6;569
7;580
8;591
9;603
10;622
11;641
12;664
13;692
14;720
15;740
0;761
1;779
2;793
3;803
4;804
5;798
6;794
7;790
8;772
9;739
10;704
11;676
12;648
13;617
14;589
15;562
0;538
1;513
2;487
3;461
4;434
5;411
6;391
7;375
8;360
9;347
10;340
11;339
12;340
13;343
14;346
15;354
0;364
1;375
2;385
3;394
4;399
5;403
6;403
7;400
8;397
9;396
10;397
11;397
12;401
13;404
14;408
15;415
0;427
1;439
2;451
3;465
4;474
5;480
6;484
7;487
8;484
9;481
10;480
11;474
12;470
13;470
14;470
15;468
0;470
1;477
2;485
3;497
4;504
5;507
6;505
7;501
8;495
9;484
10;478
11;478
12;476
13;475
14;478
15;477
0;478
1;483
2;492
3;498
4;510
5;520
6;521
7;515
8;507
9;500
10;495
11;491
12;489
13;483
14;476
15;473
0;475
1;482
2;489
3;497
4;505
5;511
6;513
7;511
8;507
9;501
10;495
11;490
12;483
13;480
14;480
15;479
0;481
1;491
2;507
3;519
4;527
5;534
6;542
7;546
8;543
9;533
10;518
11;503
12;490
13;476
14;466
15;466
0;468
1;471
2;479
3;487
4;494
5;503
6;513
7;522
8;521
9;522
10;520
11;516
12;513
13;510
14;506
15;506
0;507
1;504
2;502
3;504
4;508
5;512
6;517
7;519
8;522
9;523
10;522
11;518
12;512
13;512
14;509
15;506
0;507
1;508
2;515
3;510
4;508
5;508
6;512
7;519
8;525
9;528
10;531
11;533
12;537
13;534
14;529
15;527
0;527
1;527
2;530
3;533
4;537
5;540
6;543
7;549
8;553
9;546
10;539
11;539
12;538
13;534
14;531
15;528
0;524
1;519
2;521
3;525
4;532
5;542
6;549
7;555
8;560
9;566
10;568
11;565
12;559
13;550
14;541
15;532
0;522
1;519
2;519
3;523
4;531
5;536
6;543
7;551
8;554
9;562
10;567
11;562
12;557
13;553
14;547
15;530
0;516
1;511
2;507
3;510
4;514
5;517
6;522
7;526
8;529
9;531
10;527
11;522
12;525
13;525
14;527
15;522
0;514
1;504
2;493
3;481
4;471
5;457
6;450
7;453
8;457
9;478
10;498
11;505
12;511
13;512
14;514
15;511
0;500
1;490
2;479
3;470
4;466
5;463
6;460
7;459
8;467
9;470
10;473
11;478
12;483
13;484
14;477
15;469
0;460
1;453
2;449
3;447
4;440
5;430
6;421
7;410
8;411
9;417
10;426
11;438
12;452
13;462
14;470
15;478
0;483
1;482
2;480
3;472
4;457
5;445
6;437
7;429
8;432
9;441
10;452
11;469
12;486
13;495
14;499
15;502
0;501
1;495
2;487
3;480
4;472
5;464
6;457
7;457
8;459
9;458
10;462
11;466
12;474
13;488
14;497
15;497
0;499
1;495
2;485
3;477
4;473
5;471
6;467
7;467
8;465
9;464
10;468
11;471
12;474
13;480
14;480
15;480
0;484
1;486
2;490
3;486
4;481
5;474
6;466
7;460
8;458
9;461
10;467
11;477
12;483
13;489
14;496
15;500
0;498
1;501
2;508
3;505
4;501
5;495
6;489
7;489
8;492
9;494
10;493
11;497
12;504
13;510
14;510
15;509
0;511
1;516
2;511
3;504
4;497
5;492
6;488
7;486
8;487
9;488
10;489
11;495
12;502
13;507
14;511
15;517
0;523
1;525
2;524
3;523
4;522
5;517
6;510
7;504
8;502
9;495
10;498
11;501
12;500
13;502
14;508
15;511
0;515
1;521
2;522
3;520
4;522
5;518
6;511
7;507
8;502
9;496
10;493
11;492
12;492
13;495
14;502
15;507
0;510
1;518
2;525
3;532
4;536
5;537
6;535
7;529
8;520
9;515
10;515
11;518
12;515
13;510
14;512
15;518
0;519
1;523
2;524
3;524
4;526
5;529
6;524
7;515
8;509
9;505
10;503
11;501
12;499
13;495
14;495
15;502
0;511
1;514
2;516
3;520
4;523
5;521
6;519
7;513
8;504
9;497
10;490
11;490
12;499
13;509
14;514
15;519
0;527
1;532
2;534
3;528
4;520
5;516
6;519
7;519
8;511
9;512
10;508
11;505
12;500
13;500
14;506
15;511
0;514
1;517
2;518
3;519
4;521
5;524
6;524
7;523
8;519
9;516
10;510
11;504
12;500
13;499
14;500
15;503
0;506
1;512
2;516
3;522
4;528
5;533
6;538
7;541
8;541
9;537
10;527
11;521
12;516
13;510
14;508
15;504
0;505
1;514
2;519
3;519
4;526
5;538
6;545
7;547
8;549
9;543
10;536
11;528
12;523
13;516
14;509
15;507
0;509
1;508
2;511
3;517
4;526
5;540
6;549
7;552
8;556
9;556
10;551
11;550
12;545
13;539
14;536
15;535
0;537
1;543
2;544
3;546
4;550
5;558
6;566
7;567
8;565
9;564
10;562
11;557
12;550
13;543
14;529
15;519
0;511
1;503
2;497
3;499
4;508
5;520
6;525
7;528
8;534
9;541
10;544
11;542
12;538
13;528
14;518
15;505
0;496
1;492
2;491
3;492
4;496
5;503
6;505
7;513
8;525
9;529
10;528
11;524
12;516
13;508
14;496
15;488
0;481
1;475
2;475
3;474
4;472
5;477
6;487
7;497
8;508
9;515
10;519
11;523
12;520
13;514
14;508
15;503
0;498
1;494
2;492
3;492
4;495
5;499
6;505
7;509
8;512
9;516
10;518
11;517
12;515
13;508
14;503
15;496
0;490
1;489
2;489
3;494
4;501
5;508
6;513
7;520
8;526
9;531
10;536
11;537
12;533
13;528
14;523
15;514
0;507
1;499
2;493
3;489
4;491
5;491
6;491
7;496
8;504
9;510
10;515
11;523
12;526
13;525
14;519
15;514
0;509
1;510
2;509
3;508
4;505
5;506
6;512
7;516
8;520
9;529
10;537
11;548
12;562
13;576
14;588
15;598
0;607
1;615
2;629
3;649
4;670
5;690
6;707
7;727
8;753
9;776
10;796
11;813
12;828
13;834
14;835
15;834
0;825
1;804
2;776
3;742
4;704
5;668
6;635
7;601
8;571
9;545
10;521
11;498
12;474
13;450
14;427
15;409
0;396
1;387
2;379
3;371
4;365
5;363
6;362
7;363
8;370
9;381
10;394
11;405
12;417
13;427
14;433
15;435
0;437
1;435
2;431
3;432
4;434
5;435
6;435
7;438
8;441
9;447
10;455
11;465
12;481
13;496
14;506
15;509
0;510
1;508
2;505
3;500
4;491
5;487
6;491
7;500
8;507
9;508
10;511
11;515
12;520
13;526
14;530
15;531
0;530
1;531
2;534
3;533
4;534
5;538
6;531
7;518
8;509
9;508
10;508
11;512
12;519
13;526
14;530
15;534
0;531
1;525
2;523
3;524
4;514
5;507
6;502
7;501
8;498
9;500
10;504
11;508
12;513
13;518
14;524
15;529
0;532
1;537
2;536
3;531
4;528
5;524
6;518
7;512
8;506
9;503
10;504
11;503
12;508
13;517
14;527
15;534
0;540
1;542
2;540
3;539
4;538
5;536
6;529
7;518
8;508
9;501
10;500
11;500
12;503
13;509
14;518
15;524
0;528
1;535
2;542
3;543
4;542
5;542
6;542
7;534
8;524
9;516
10;512
11;510
12;510
13;515
14;523
15;532
0;538
1;539
2;540
3;537
4;537
5;539
6;535
7;529
8;529
9;526
10;523
11;521
12;521
13;523
14;528
15;536
0;540
1;543
2;546
3;547
4;548
5;551
6;550
7;542
8;533
9;527
10;524
11;522
12;523
13;520
14;524
15;530
0;537
1;543
2;552
3;561
4;560
5;558
6;558
7;559
8;555
9;549
10;547
11;545
12;542
13;543
14;548
15;551
0;556
1;559
2;564
3;569
4;569
5;565
6;561
7;559
8;553
9;547
10;545
11;540
12;537
13;543
14;550
15;552
0;551
1;552
2;562
3;568
4;572
5;574
6;576
7;575
8;570
9;562
10;555
11;546
12;532
13;523
14;519
15;517
0;519
1;525
2;534
3;543
4;546
5;548
6;547
7;540
8;532
9;521
10;511
11;508
12;504
13;499
14;494
15;491
0;489
1;489
2;489
3;491
4;492
5;491
6;496
7;500
8;502
9;500
10;492
11;480
12;465
13;456
14;456
15;459
0;460
1;460
2;460
3;464
4;468
5;473
6;476
7;472
8;467
9;459
10;450
11;443
12;444
13;445
14;445
15;443
0;445
1;454
2;462
3;463
4;461
5;461
6;463
7;469
8;469
9;465
10;461
11;455
12;452
13;451
14;445
15;431
0;420
1;421
2;427
3;431
4;437
5;440
6;446
7;455
8;464
9;468
10;469
11;471
12;468
13;459
14;454
15;453
0;449
1;449
2;451
3;451
4;452
5;457
6;464
7;468
8;470
9;471
10;472
11;472
12;472
13;471
14;464
15;457
0;451
1;449
2;451
3;459
4;468
5;476
6;482
7;485
8;487
9;487
10;486
11;486
12;487
13;483
14;481
15;478
0;473
1;466
2;460
3;461
4;465
5;469
6;479
7;487
8;488
9;489
10;490
11;495
12;499
13;496
14;484
15;474
0;470
1;467
2;467
3;471
4;477
5;485
6;491
7;497
8;503
9;509
10;516
11;519
12;520
13;521
14;520
15;513
0;507
1;500
2;493
3;482
4;475
5;471
6;468
7;472
8;480
9;488
10;495
11;505
12;509
13;507
14;505
15;500
0;494
1;492
2;490
3;491
4;493
5;492
6;491
7;493
8;499
9;505
10;513
11;520
12;521
13;519
14;514
15;514
0;513
1;507
2;504
3;502
4;499
5;500
6;497
7;490
8;483
9;492
10;504
11;514
12;520
13;523
14;526
15;525
0;521
1;513
2;510
3;508
4;501
5;495
6;492
7;493
8;495
9;500
10;504
11;507
12;515
13;528
14;532
15;537
0;535
1;531
2;523
3;514
4;506
5;498
6;496
7;500
8;503
9;505
10;507
11;511
12;518
13;527
14;533
15;533
0;534
1;531
2;522
3;511
4;504
5;495
6;484
7;482
8;483
9;484
10;492
11;503
12;512
13;520
14;528
15;532
0;531
1;528
2;522
3;515
4;508
5;500
6;492
7;491
8;494
9;493
10;495
11;504
12;511
13;515
14;521
15;527
0;531
1;536
2;537
3;535
4;527
5;520
6;515
7;512
8;510
9;510
10;511
11;511
12;517
13;519
14;524
15;527
0;530
1;530
2;529
3;529
4;527
5;522
6;521
7;520
8;519
9;517
10;518
11;519
12;521
13;526
14;535
15;541
0;544
1;547
2;550
3;551
4;552
5;548
6;543
7;537
8;530
9;526
10;527
11;525
12;527
13;534
14;543
15;551
0;555
1;559
2;560
3;562
4;563
5;558
6;555
7;548
8;544
9;540
10;534
11;527
12;522
13;520
14;527
15;532
0;532
1;535
2;537
3;539
4;538
5;535
6;529
7;520
8;514
9;508
10;506
11;506
12;504
13;504
14;509
15;513
0;513
1;516
2;521
3;525
4;527
5;533
6;536
7;532
8;523
9;511
10;501
11;488
12;483
13;483
14;486
15;492
0;496
1;496
2;502
3;511
4;516
5;515
6;510
7;500
8;489
9;484
10;487
11;486
12;485
13;488
14;496
15;502
0;509
1;514
2;519
3;522
4;525
5;521
6;518
7;516
8;511
9;508
10;503
11;496
12;493
13;492
14;488
15;484
0;488
1;498
2;505
3;514
4;519
5;521
6;528
7;535
8;533
9;523
10;514
11;509
12;504
13;497
14;497
15;501
0;503
1;509
2;520
3;537
4;552
5;553
6;552
7;541
8;528
9;517
10;510
11;501
12;494
13;491
14;490
15;487
0;489
1;496
2;505
3;514
4;524
5;534
6;542
7;551
8;562
9;568
10;568
11;569
12;575
13;580
14;588
15;602
0;617
1;635
2;657
3;683
4;708
5;736
6;769
7;799
8;821
9;832
10;835
11;829
12;824
13;815
14;799
15;776
0;747
1;714
2;684
3;656
4;626
5;593
6;562
7;532
8;502
9;475
10;451
11;422
12;396
13;376
14;364
15;351
0;347
1;355
2;364
3;372
4;387
5;402
6;418
7;433
8;441
9;439
10;431
11;426
12;425
13;429
14;425
15;419
0;418
1;418
2;425
3;434
4;443
5;457
6;471
7;481
8;494
9;500
10;502
11;504
12;505
13;506
14;507
15;505
0;497
1;498
2;504
3;508
4;508
5;512
6;515
7;517
8;518
9;519
10;521
11;519
12;516
13;517
14;517
15;511
0;508
1;504
2;501
3;500
4;498
5;502
6;507
7;511
8;520
9;530
10;537
11;539
12;535
13;528
14;522
15;513
0;509
1;505
2;501
3;499
4;498
5;500
6;504
7;512
8;519
9;529
10;536
11;540
12;541
13;540
14;535
15;526
0;516
1;507
2;498
3;495
4;498
5;501
6;504
7;511
8;521
9;531
10;537
11;539
12;536
13;536
14;537
15;536
0;529
1;528
2;527
3;524
4;521
5;518
6;505
7;503
8;509
9;513
10;511
11;508
12;505
13;499
14;502
15;511
0;518
1;523
2;523
3;520
4;515
5;513
6;511
7;506
8;507
9;509
10;516
11;527
12;535
13;544
14;556
15;563
0;560
1;550
2;536
3;525
4;519
5;516
6;516
7;519
8;525
9;532
10;535
11;538
12;541
13;540
14;541
15;542
0;543
1;545
2;542
3;533
4;527
5;524
6;525
7;528
8;529
9;531
10;533
11;532
12;529
13;527
14;523
15;517
0;513
1;506
2;497
3;494
4;498
5;499
6;502
7;514
8;526
9;536
10;544
11;555
12;562
13;569
14;575
15;574
0;572
1;568
2;563
3;558
4;553
5;547
6;544
7;542
8;540
9;539
10;541
11;547
12;550
13;549
14;553
15;557
0;558
1;556
2;551
3;546
4;537
5;527
6;515
7;511
8;514
9;515
10;515
11;518
12;521
13;523
14;531
15;539
0;543
1;543
2;541
3;539
4;530
5;521
6;511
7;501
8;496
9;496
10;494
11;492
12;495
13;500
14;504
15;511
0;511
1;506
2;507
3;509
4;504
5;494
6;486
7;476
8;466
9;462
10;462
11;461
12;464
13;466
14;469
15;475
0;477
1;475
2;471
3;464
4;456
5;451
6;444
7;446
8;449
9;448
10;449
11;455
12;459
13;465
14;475
15;478
0;471
1;468
2;462
3;456
4;453
5;452
6;447
7;445
8;444
9;442
10;439
11;439
12;440
13;443
14;449
15;454
0;458
1;465
2;471
3;471
4;472
5;471
6;464
7;455
8;450
9;447
10;441
11;442
12;446
13;449
14;454
15;458
0;464
1;471
2;477
3;481
4;476
5;474
6;473
7;468
8;464
9;461
10;461
11;459
12;457
13;455
14;455
15;460
0;467
1;473
2;480
3;486
4;489
5;491
6;491
7;484
8;473
9;469
10;465
11;463
12;466
13;468
14;470
15;474
0;480
1;480
2;481
3;488
4;501
5;508
6;508
7;507
8;502
9;497
10;492
11;487
12;480
13;473
14;472
15;479
0;487
1;491
2;488
3;486
4;492
5;500
6;503
7;504
8;502
9;496
10;488
11;482
12;477
13;472
14;469
15;467
0;470
1;479
2;487
3;495
4;507
5;515
6;518
7;518
8;516
9;513
10;511
11;505
12;502
13;497
14;493
15;491
0;489
1;491
2;495
3;501
4;506
5;513
6;517
7;521
8;526
9;526
10;517
11;506
12;499
13;498
14;499
15;505
0;511
1;513
2;514
3;518
4;520
5;523
6;526
7;532
8;532
9;532
10;531
11;523
12;513
13;505
14;497
15;494
0;491
1;491
2;492
3;500
4;509
5;517
6;524
7;526
8;530
9;532
10;532
11;530
12;523
13;516
14;512
15;508
0;502
1;498
2;495
3;502
4;514
5;524
6;525
7;528
8;536
9;539
10;539
11;537
12;531
13;526
14;519
15;509
0;503
1;503
2;503
3;504
4;509
5;515
6;522
7;531
8;536
9;539
10;540
11;538
12;534
13;527
14;524
15;522
0;522
1;526
2;529
3;528
4;525
5;524
6;521
7;521
8;528
9;535
10;539
11;543
12;543
13;542
14;536
15;535
0;534
1;529
2;526
3;522
4;520
5;526
6;534
7;540
8;542
9;543
10;545
11;543
12;542
13;539
14;531
15;522
0;515
1;509
2;503
3;501
4;502
5;501
6;504
7;509
8;513
9;517
10;521
11;524
12;523
13;522
14;519
15;509
0;500
1;491
2;481
3;473
4;470
5;470
6;471
7;475
8;485
9;497
10;507
11;511
12;507
13;503
14;501
15;498
0;492
1;487
2;485
3;478
4;471
5;466
6;463
7;462
8;470
9;479
10;489
11;499
12;509
13;510
14;511
15;506
0;500
1;491
2;483
3;479
4;474
5;474
6;479
7;481
8;483
9;486
10;486
11;489
12;497
13;502
14;505
15;502
0;496
1;488
2;479
3;472
4;465
5;461
6;459
7;459
8;460
9;470
10;480
11;492
12;502
13;505
14;507
15;508
0;505
1;500
2;497
3;496
4;493
5;485
6;483
7;485
8;485
9;487
10;493
11;500
12;506
13;508
14;509
15;511
0;511
1;509
2;505
3;506
4;504
5;496
6;493
7;497
8;507
9;517
10;530
11;543
12;558
13;582
14;606
15;627
0;648
1;671
2;691
3;706
4;719
5;732
6;744
7;753
8;768
9;784
10;795
11;806
12;812
13;811
14;801
15;783
0;759
1;731
2;700
3;661
4;617
5;572
6;528
7;489
8;455
9;426
10;401
11;384
12;374
13;370
14;365
15;361
0;363
1;365
2;368
3;370
4;370
5;370
6;375
7;378
8;379
9;377
10;377
11;380
12;387
13;395
14;401
15;408
0;415
1;423
2;428
3;435
4;441
5;444
6;444
7;443
8;443
9;445
10;449
11;454
12;456
13;465
14;473
15;478
0;483
1;489
2;497
3;503
4;506
5;508
6;505
7;503
8;494
9;487
10;487
11;487
12;483
13;478
14;476
15;483
0;498
1;507
2;512
3;515
4;517
5;517
6;515
7;510
8;506
9;503
10;500
11;504
12;511
13;511
14;513
15;519
0;526
1;533
2;542
3;545
4;546
5;544
6;540
7;531
8;523
9;517
10;510
11;507
12;504
13;502
14;502
15;507
0;515
1;523
2;532
3;542
4;550
5;556
6;556
7;552
8;541
9;531
10;523
11;516
12;509
13;504
14;505
15;506
0;514
1;523
2;526
3;531
4;534
5;533
6;532
7;529
8;525
9;522
10;518
11;515
12;511
13;508
14;505
15;506
0;511
1;518
2;528
3;537
4;542
5;546
6;550
7;551
8;547
9;541
10;534
11;527
12;521
13;518
14;517
15;518
0;523
1;529
2;536
3;548
4;554
5;555
6;559
7;560
8;550
9;545
10;540
11;529
12;521
13;515
14;514
15;513
0;516
1;524
2;534
3;542
4;550
5;556
6;559
7;561
8;565
9;562
10;556
11;551
12;550
13;545
14;540
15;537
0;537
1;538
2;541
3;549
4;557
5;562
6;563
7;562
8;564
9;566
10;564
11;561
12;556
13;548
14;541
15;540
0;544
1;547
2;549
3;552
4;558
5;563
6;568
7;571
8;571
9;572
10;571
11;564
12;555
13;547
14;540
15;537
0;536
1;533
2;530
3;531
4;535
5;539
6;541
7;544
8;544
9;543
10;543
11;545
12;542
13;532
14;524
15;518
0;510
1;505
2;504
3;501
4;503
5;507
6;511
7;518
8;525
9;525
10;520
11;513
12;508
13;504
14;499
15;488
0;478
1;467
2;460
3;455
4;453
5;460
6;465
7;471
8;480
9;481
10;479
11;476
12;473
13;463
14;455
15;448
0;440
1;435
2;434
3;436
4;440
5;445
6;453
7;462
8;464
9;464
10;465
11;467
12;472
13;474
14;469
15;457
0;450
1;446
2;443
3;443
4;444
5;445
6;447
7;455
8;463
9;468
10;471
11;471
12;469
13;468
14;461
15;452
0;447
1;441
2;434
3;428
4;428
5;429
6;431
7;438
8;444
9;451
10;462
11;471
12;474
13;473
14;470
15;463
0;454
1;448
2;440
3;438
4;438
5;437
6;435
7;436
8;439
9;441
10;446
11;452
12;458
13;459
14;462
15;466
0;465
1;461
2;455
3;447
4;440
5;436
6;434
7;435
8;443
9;451
10;459
11;465
12;470
13;474
14;477
15;479
0;473
1;466
2;462
3;455
4;448
5;443
6;441
7;440
8;443
9;448
10;455
11;459
12;466
13;474
14;476
15;476
0;476
1;470
2;462
3;457
4;454
5;446
6;446
7;451
8;459
9;465
10;470
11;476
12;485
13;489
14;489
15;492
0;489
1;477
2;461
3;454
4;454
5;454
6;454
7;454
8;457
9;464
10;472
11;478
12;484
13;489
14;496
15;500
0;499
1;495
2;488
3;480
4;477
5;473
6;461
7;457
8;455
9;455
10;458
11;466
12;476
13;480
14;485
15;491
0;495
1;497
2;499
3;498
4;493
5;487
6;476
7;467
8;460
9;455
10;454
11;459
12;465
13;473
14;482
15;493
0;500
1;505
2;507
3;500
4;492
5;486
6;475
7;472
8;468
9;466
10;466
11;467
12;474
13;483
14;489
15;496
0;502
1;505
2;508
3;509
4;505
5;498
6;491
7;483
8;478
9;476
10;476
11;479
12;483
13;490
14;496
15;504
0;511
1;514
2;514
3;513
4;510
5;506
6;502
7;494
8;487
9;482
10;483
11;484
12;482
13;482
14;486
15;490
0;495
1;497
2;500
3;504
4;505
5;504
6;502
7;497
8;493
9;490
10;485
11;481
12;481
13;482
14;486
15;493
0;499
1;503
2;507
3;515
4;523
5;530
6;529
7;524
8;515
9;509
10;507
11;502
12;504
13;503
14;501
15;505
0;510
1;509
2;514
3;521
4;524
5;526
6;522
7;516
8;511
9;508
10;504
11;499
12;499
13;500
14;497
15;499
0;504
1;512
2;522
3;531
4;535
5;538
6;540
7;541
8;539
9;538
10;535
11;530
12;526
13;521
14;518
15;519
0;527
1;535
2;541
3;547
4;551
5;553
6;553
7;551
8;545
9;534
10;526
11;523
12;522
13;517
14;512
15;510
0;514
1;520
2;526
3;531
4;535
5;536
6;536
7;535
8;530
9;521
10;512
11;504
12;495
13;491
14;491
15;494
0;492
1;494
2;501
3;507
4;510
5;514
6;514
7;516
8;518
9;517
10;513
11;507
12;499
13;490
14;482
15;482
0;485
1;488
2;494
3;500
4;507
5;517
6;523
7;526
8;526
9;524
10;518
11;513
12;512
13;510
14;506
15;508
0;508
1;508
2;512
3;516
4;516
5;520
6;526
7;527
8;527
9;525
10;519
11;516
12;515
13;510
14;504
15;499
0;498
1;498
2;498
3;504
4;512
5;520
6;528
7;538
8;547
9;548
10;545
11;539
12;527
13;519
14;514
15;509
0;509
1;514
2;514
3;512
4;517
5;521
6;521
7;525
8;528
9;533
10;530
11;526
12;522
13;518
14;515
15;511
0;504
1;499
2;499
3;505
4;514
5;525
6;541
7;556
8;572
9;584
10;594
11;605
12;615
13;626
14;635
15;645
0;657
1;673
2;694
3;714
4;734
5;757
6;778
7;800
8;823
9;840
10;846
11;846
12;841
13;825
14;800
15;770
0;738
1;706
2;672
3;636
4;599
5;564
6;536
7;507
8;483
9;465
10;447
11;431
12;417
13;406
14;397
15;388
0;383
1;378
2;375
3;379
4;382
5;380
6;389
7;400
8;411
9;421
10;437
11;448
12;451
13;451
14;450
15;450
0;448
1;447
2;445
3;449
4;461
5;464
6;463
7;473
8;490
9;500
10;505
11;511
12;516
13;518
14;518
15;513
0;507
1;505
2;504
3;503
4;502
5;501
6;500
7;502
8;510
9;516
10;519
11;525
12;530
13;539
14;539
15;536
0;531
1;527
2;524
3;519
4;513
5;510
6;510
7;511
8;514
9;521
10;526
11;532
12;541
13;544
14;543
15;543
0;540
1;535
2;529
3;525
4;522
5;520
6;520
7;519
8;520
9;524
10;528
11;535
12;541
13;544
14;546
15;547
0;547
1;543
2;539
3;536
4;531
5;527
6;523
7;522
8;523
9;524
10;528
11;537
12;548
13;554
14;555
15;552
0;551
1;551
2;546
3;542
4;536
5;534
6;531
7;527
8;524
9;522
10;519
11;524
12;541
13;549
14;554
15;562
0;569
1;570
2;569
3;565
4;560
5;555
6;550
7;544
8;546
9;547
10;545
11;548
12;549
13;556
14;562
15;566
0;569
1;573
2;574
3;568
4;559
5;551
6;547
7;547
8;547
9;547
10;545
11;547
12;551
13;557
14;560
15;563
0;567
1;570
2;572
3;572
4;569
5;565
6;561
7;556
8;549
9;545
10;542
11;539
12;544
13;555
14;568
15;580
0;588
1;590
2;589
3;585
4;581
5;573
6;575
7;577
8;569
9;562
10;561
11;559
12;560
13;567
14;572
15;580
0;588
1;595
2;596
3;594
4;591
5;586
6;583
7;582
8;579
9;568
10;559
11;554
12;547
13;542
14;545
15;550
0;555
1;561
2;562
3;560
4;559
5;556
6;552
7;545
8;540
9;533
10;526
11;524
12;522
13;521
14;522
15;526
0;529
1;531
2;534
3;534
4;533
5;531
6;525
7;518
8;512
9;505
10;495
11;486
12;483
13;478
14;475
15;478
0;483
1;488
2;493
3;499
4;500
5;497
6;497
7;494
8;486
9;479
10;473
11;464
12;456
13;450
14;447
15;448
0;456
1;466
2;473
3;477
4;479
5;477
6;470
7;461
8;458
9;457
10;459
11;461
12;458
13;454
14;453
15;449
0;446
1;448
2;454
3;465
4;474
5;476
6;477
7;478
8;473
9;470
10;463
11;460
12;458
13;457
14;457
15;453
0;449
1;450
2;457
3;462
4;469
5;475
6;476
7;478
8;478
9;472
10;468
11;463
12;457
13;454
14;449
15;448
0;452
1;460
2;466
3;469
4;473
5;481
6;487
7;490
8;489
9;484
10;474
11;471
12;469
13;465
14;462
15;463
0;462
1;463
2;465
3;469
4;474
5;483
6;488
7;491
8;492
9;490
10;487
11;480
12;474
13;472
14;470
15;467
0;469
1;469
2;471
3;478
4;484
5;490
6;495
7;495
8;493
9;488
10;487
11;486
12;482
13;480
14;478
15;473
0;467
1;468
2;470
3;471
4;480
5;491
6;498
7;508
8;511
9;513
10;512
11;507
12;499
13;489
14;481
15;474
0;471
1;471
2;473
3;478
4;482
5;489
6;496
7;502
8;507
9;510
10;511
11;508
12;501
13;493
14;486
15;479
0;475
1;471
2;475
3;477
4;478
5;483
6;488
7;495
8;503
9;511
10;514
11;515
12;515
13;508
14;499
15;492
0;486
1;486
2;487
3;486
4;485
5;489
6;495
7;497
8;503
9;509
10;512
11;513
12;515
13;516
14;513
15;510
0;504
1;498
2;494
3;492
4;490
5;492
6;496
7;501
8;505
9;510
10;517
11;522
12;522
13;520
14;518
15;515
0;511
1;504
2;496
3;492
4;490
5;491
6;492
7;496
8;500
9;504
10;508
11;512
12;512
13;510
14;505
15;498
0;489
1;480
2;472
3;468
4;467
5;469
6;468
7;471
8;477
9;481
10;483
11;486
12;490
13;493
14;495
15;493
0;487
1;479
2;472
3;464
4;456
5;452
6;450
7;450
8;453
9;458
10;460
11;457
12;455
13;456
14;469
15;474
0;478
1;481
2;479
3;470
4;460
5;454
6;453
7;454
8;455
9;457
10;459
11;463
12;465
13;468
14;469
15;468
0;470
1;472
2;468
3;463
4;455
5;448
6;443
7;441
8;441
9;442
10;444
11;448
12;456
13;463
14;464
15;467
0;469
1;469
2;464
3;458
4;450
5;444
6;442
7;442
8;442
9;443
10;445
11;451
12;455
13;460
14;464
15;465
0;467
1;468
2;468
3;465
4;458
5;453
6;455
7;454
8;451
9;446
10;444
11;451
12;460
13;468
14;478
15;483
0;479
1;474
2;469
3;460
4;448
5;440
6;436
7;437
8;439
9;441
10;448
11;459
12;465
13;468
14;470
15;472
0;475
1;478
2;477
3;469
4;458
5;446
6;435
7;424
8;416
9;413
10;413
11;414
12;416
13;420
14;421
15;420
0;423
1;424
2;424
3;426
4;427
5;422
6;418
7;412
8;407
9;403
10;403
11;402
12;403
13;410
14;418
15;424
0;429
1;430
2;429
3;427
4;427
5;424
6;419
7;414
8;408
9;402
10;399
11;399
12;402
13;405
14;411
15;414
0;418
1;423
2;428
3;432
4;432
5;427
6;419
7;411
8;404
9;396
10;391
11;389
12;388
13;388
14;389
15;388
0;390
1;398
2;408
3;415
4;414
5;410
6;404
7;398
8;392
9;385
10;378
11;372
12;370
13;367
14;365
15;367
0;368
1;374
2;378
3;381
4;382
5;380
6;375
7;364
8;355
9;347
10;338
11;330
12;327
13;327
14;327
15;333
0;345
1;352
2;357
3;363
4;365
5;363
6;364
7;366
8;365
9;366
10;374
11;380
12;388
13;403
14;422
15;442
0;468
1;495
2;519
3;548
4;574
5;590
6;604
7;621
8;632
9;635
10;633
11;627
12;618
13;604
14;585
15;559
0;534
1;511
2;488
3;463
4;436
5;408
6;378
7;348
8;318
9;293
10;268
11;244
12;223
13;204
14;193
15;188
0;188
1;193
2;208
3;228
4;245
5;258
6;265
7;269
8;275
9;284
10;285
11;286
12;286
13;283
14;283
15;288
0;295
1;304
2;317
3;335
4;351
5;365
6;375
7;381
8;385
9;391
10;391
11;389
12;387
13;385
14;385
15;386
0;390
1;397
2;404
3;413
4;424
5;433
6;441
7;445
8;445
9;447
10;452
11;450
12;448
13;448
14;444
15;443
0;441
1;441
2;446
3;451
4;457
5;465
6;476
7;484
8;494
9;505
10;508
11;506
12;502
13;497
14;495
15;492
0;493
1;496
2;497
3;501
4;509
5;517
6;523
7;531
8;541
9;545
10;547
11;551
12;552
13;552
14;552
15;551
0;551
1;552
2;555
3;558
4;561
5;569
6;579
7;588
8;597
9;605
10;610
11;611
12;610
13;606
14;599
15;593
0;591
1;591
2;596
3;601
4;604
5;610
6;618
7;627
8;639
9;644
10;645
11;648
12;658
13;663
14;655
15;648
0;646
1;641
2;639
3;641
4;644
5;652
6;662
7;670
8;676
9;683
10;686
11;685
12;685
13;684
14;679
15;675
0;670
1;664
2;658
3;656
4;657
5;659
6;660
7;665
8;672
9;679
10;684
11;687
12;688
13;691
14;695
15;695
0;688
1;676
2;665
3;663
4;664
5;663
6;665
7;670
8;678
9;682
10;686
11;692
12;695
13;695
14;695
15;692
0;689
1;684
2;683
3;681
4;675
5;672
6;668
7;671
8;679
9;687
10;695
11;703
12;709
13;710
14;711
15;706
0;700
1;694
2;688
3;681
4;676
5;673
6;673
7;670
8;669
9;672
10;674
11;678
12;684
13;688
14;690
15;692
0;690
1;679
2;665
3;656
4;645
5;641
6;644
7;648
8;652
9;656
10;656
11;655
12;658
13;661
14;662
15;662
0;658
1;653
2;642
3;631
4;623
5;612
6;605
7;603
8;599
9;597
10;600
11;603
12;606
13;609
14;611
15;609
0;607
1;603
2;594
3;583
4;574
5;565
6;556
7;555
8;557
9;554
10;554
11;559
12;565
13;570
14;574
15;576
0;575
1;572
2;564
3;552
4;542
5;532
6;524
7;520
8;519
9;519
10;517
11;519
12;527
13;533
14;537
15;538
0;536
1;532
2;528
3;525
4;523
5;519
6;517
7;512
8;507
9;505
10;504
11;505
12;510
13;515
14;519
15;523
0;524
1;523
2;523
3;521
4;516
5;510
6;504
7;496
8;492
9;489
10;489
11;487
12;488
13;493
14;498
15;505
0;510
1;511
2;511
3;511
4;511
5;506
6;503
7;500
8;493
9;488
10;487
11;486
12;485
13;486
14;492
15;499
0;510
1;521
2;525
3;529
4;526
5;522
6;516
7;510
8;504
9;496
10;494
11;492
12;488
13;488
14;494
15;496
0;497
1;501
2;507
3;511
4;514
5;511
6;505
7;505
8;505
9;497
10;492
11;489
12;488
13;488
14;491
15;495
0;498
1;505
2;513
3;514
4;512
5;512
6;509
7;503
8;497
9;493
10;486
11;480
12;480
13;481
14;483
15;487
0;494
1;500
2;504
3;509
4;512
5;512
6;509
7;503
8;496
9;493
10;490
11;482
12;476
13;475
14;480
15;487
0;492
1;499
2;503
3;507
4;508
5;507
6;509
7;509
8;504
9;494
10;488
11;482
12;474
13;477
14;482
15;481
0;483
1;490
2;498
3;503
4;508
5;512
6;510
7;508
8;505
9;498
10;493
11;490
12;485
13;480
14;478
15;475
0;474
1;476
2;483
3;489
4;495
5;501
6;506
7;511
8;511
9;507
10;501
11;495
12;485
13;476
14;473
15;473
0;471
1;474
2;481
3;487
4;493
5;500
6;506
7;508
8;508
9;507
10;501
11;494
12;488
13;485
14;483
15;477
0;475
1;476
2;482
3;492
4;496
5;500
6;507
7;508
8;508
9;506
10;499
11;492
12;488
13;488
14;484
15;482
0;481
1;480
2;481
3;484
4;491
5;498
6;505
7;508
8;508
9;508
10;507
11;507
12;501
13;493
14;486
15;478
0;474
1;475
2;475
3;478
4;485
5;490
6;496
7;501
8;505
9;507
10;505
11;505
12;498
13;489
14;483
15;478
0;474
1;473
2;476
3;479
4;485
5;492
6;497
7;499
8;503
9;505
10;505
11;502
12;502
13;496
14;490
15;484
0;479
1;476
2;475
3;475
4;478
5;486
6;495
7;503
8;508
9;515
10;519
11;522
12;523
13;520
14;515
15;510
0;509
1;507
2;507
3;503
4;496
5;497
6;504
7;513
8;518
9;518
10;519
11;519
12;522
13;522
14;520
15;518
0;511
1;503
2;500
3;504
4;508
5;511
6;519
7;529
8;539
9;547
10;554
11;558
12;559
13;557
14;555
15;548
0;540
1;532
2;526
3;521
4;520
5;521
6;521
7;523
8;525
9;524
10;528
11;534
12;534
13;532
14;534
15;535
0;530
1;526
2;518
3;508
4;502
5;500
6;496
7;495
8;501
9;509
10;517
11;523
12;524
13;520
14;516
15;511
0;503
1;497
2;495
3;492
4;491
5;489
6;488
7;486
8;487
9;493
10;499
11;505
12;508
13;510
14;511
15;510
0;508
1;501
2;495
3;489
4;481
5;477
6;477
7;480
8;483
9;487
10;494
11;502
12;508
13;512
14;513
15;515
0;515
1;511
2;504
3;502
4;497
5;491
6;487
7;486
8;487
9;490
10;495
11;503
12;511
13;516
14;519
15;517
0;515
1;515
2;511
3;506
4;504
5;501
6;497
7;493
8;490
9;489
10;489
11;496
12;499
13;502
14;508
15;513
0;514
1;513
2;510
3;505
4;504
5;501
6;496
7;488
8;474
9;472
10;480
11;487
12;493
13;497
14;502
15;507
0;512
1;517
2;517
3;514
4;508
5;505
6;508
7;511
8;515
9;525
10;537
11;552
12;568
13;588
14;609
15;632
0;654
1;673
2;696
3;717
4;728
5;737
6;747
7;753
8;761
9;771
10;777
11;779
12;784
13;786
14;776
15;760
0;741
1;714
2;684
3;650
4;612
5;573
6;534
7;498
8;464
9;435
10;413
11;393
12;381
13;374
14;373
15;377
0;377
1;378
2;380
3;383
4;384
5;384
6;383
7;381
8;379
9;377
10;382
11;387
12;394
13;399
14;406
15;418
0;431
1;442
2;449
3;447
4;448
5;450
6;447
7;446
8;447
9;448
10;449
11;453
12;456
13;462
14;470
15;480
0;486
1;493
2;503
3;511
4;514
5;515
6;515
7;510
8;504
9;500
10;496
11;494
12;494
13;494
14;501
15;508
0;515
1;521
2;522
3;521
4;522
5;520
6;518
7;519
8;517
9;515
10;511
11;506
12;508
13;512
14;517
15;522
0;527
1;533
2;539
3;542
4;544
5;544
6;546
7;543
8;536
9;527
10;528
11;529
12;524
13;518
14;515
15;513
0;514
1;520
2;527
3;532
4;538
5;543
6;543
7;541
8;537
9;530
10;524
11;525
12;520
13;513
14;511
15;514
0;519
1;522
2;525
3;529
4;536
5;541
6;543
7;546
8;545
9;541
10;535
11;529
12;523
13;517
14;514
15;514
0;517
1;521
2;524
3;524
4;524
5;535
6;543
7;544
8;545
9;542
10;531
11;522
12;513
13;507
14;502
15;502
0;501
1;502
2;509
3;518
4;526
5;535
6;539
7;542
8;543
9;541
10;537
11;531
12;526
13;522
14;517
15;514
0;515
1;518
2;524
3;531
4;540
5;546
6;551
7;559
8;559
9;555
10;551
11;548
12;542
13;539
14;541
15;544
0;550
1;553
2;546
3;542
4;543
5;548
6;553
7;558
8;562
9;564
10;564
11;564
12;565
13;565
14;561
15;551
0;543
1;545
2;545
3;535
4;534
5;541
6;545
7;550
8;559
9;562
10;561
11;557
12;552
13;548
14;544
15;538
0;527
1;523
2;520
3;519
4;520
5;523
6;528
7;534
8;540
9;544
10;547
11;547
12;542
13;535
14;529
15;523
0;518
1;516
2;517
3;510
4;501
5;498
6;500
7;502
8;504
9;504
10;504
11;504
12;503
13;501
14;491
15;482
0;474
1;464
2;458
3;457
4;458
5;457
6;461
7;468
8;473
9;478
10;482
11;485
12;485
13;483
14;477
15;465
0;455
1;450
2;442
3;437
4;432
5;428
6;428
7;434
8;443
9;451
10;455
11;458
12;459
13;459
14;456
15;451
0;447
1;443
2;438
3;431
4;426
5;425
6;425
7;426
8;429
9;434
10;444
11;452
12;461
13;464
14;465
15;468
0;469
1;468
2;462
3;452
4;443
5;436
6;436
7;435
8;435
9;440
10;443
11;447
12;452
13;453
14;453
15;453
0;451
1;445
2;441
3;440
4;434
5;431
6;433
7;436
8;440
9;444
10;450
11;456
12;459
13;463
14;466
15;464
0;462
1;457
2;453
3;450
4;451
5;454
6;458
7;462
8;460
9;458
10;461
11;465
12;469
13;475
14;480
15;483
0;482
1;479
2;475
3;472
4;468
5;467
6;465
7;466
8;467
9;466
10;470
11;476
12;483
13;489
14;494
15;495
0;495
1;491
2;486
3;479
4;475
5;472
6;467
7;465
8;464
9;469
10;479
11;487
12;494
13;502
14;504
15;507
0;509
1;509
2;515
3;512
4;509
5;506
6;499
7;487
8;482
9;478
10;473
11;473
12;477
13;485
14;493
15;499
0;510
1;511
2;506
3;501
4;493
5;487
6;484
7;483
8;482
9;484
10;486
11;487
12;491
13;497
14;503
15;509
0;512
1;513
2;515
3;515
4;511
5;506
6;506
7;501
8;493
9;490
10;489
11;492
12;496
13;500
14;506
15;513
0;520
1;526
2;528
3;529
4;529
5;524
6;514
7;507
8;498
9;491
10;491
11;492
12;495
13;500
14;509
15;518
0;526
1;533
2;538
3;540
4;536
5;533
6;529
7;525
8;522
9;519
10;516
11;508
12;502
13;498
14;501
15;509
0;522
1;537
2;544
3;540
4;533
5;526
6;522
7;516
8;511
9;506
10;501
11;502
12;505
13;508
14;512
15;518
0;526
1;531
2;536
3;540
4;540
5;538
6;534
7;531
8;527
9;522
10;515
11;510
12;513
13;518
14;519
15;519
0;526
1;530
2;534
3;538
4;544
5;544
6;543
7;539
8;533
9;531
10;531
11;531
12;531
13;532
14;537
15;534
0;535
1;544
2;549
3;549
4;551
5;554
6;553
7;553
8;555
9;551
10;550
11;547
12;542
13;541
14;539
15;538
0;539
1;542
2;547
3;554
4;562
5;568
6;571
7;572
8;570
9;567
10;563
11;559
12;554
13;548
14;549
15;555
0;559
1;564
2;572
3;577
4;583
5;587
6;589
7;590
8;594
9;593
10;583
11;574
12;568
13;562
14;558
15;555
0;555
1;557
2;562
3;569
4;572
5;573
6;575
7;575
8;584
9;593
10;594
11;593
12;591
13;583
14;572
15;560
0;552
1;546
2;545
3;550
4;553
5;556
6;558
7;555
8;551
9;547
10;540
11;531
12;526
13;525
14;524
15;521
0;520
1;520
2;521
3;525
4;527
5;529
6;533
7;539
8;543
9;544
10;540
11;536
12;530
13;525
14;521
15;518
0;516
1;516
2;520
3;522
4;526
5;529
6;534
7;540
8;543
9;543
10;545
11;545
12;541
13;536
14;533
15;529
0;522
1;518
2;516
3;517
4;517
5;520
6;526
7;531
8;542
9;553
10;556
11;556
12;556
13;554
14;545
15;536
0;527
1;523
2;525
3;523
4;521
5;525
6;528
7;529
8;530
9;535
10;540
11;542
12;539
13;536
14;535
15;535
0;529
1;525
2;522
3;524
4;527
5;526
6;527
7;531
8;535
9;541
10;547
11;550
12;550
13;548
14;546
15;541
0;536
1;532
2;531
3;531
4;539
5;547
6;559
7;573
8;587
9;603
10;620
11;638
12;653
13;668
14;686
15;699
0;713
1;726
2;739
3;753
4;771
5;788
6;805
7;824
8;840
9;850
10;858
11;862
12;855
13;834
14;807
15;777
0;739
1;699
2;655
3;609
4;567
5;532
6;505
7;483
8;463
9;444
10;427
11;420
12;417
13;412
14;407
15;405
0;403
1;399
2;398
3;396
4;396
5;400
6;403
7;408
8;416
9;426
10;435
11;442
12;449
13;458
14;464
15;467
0;468
1;467
2;467
3;467
4;466
5;467
6;467
7;470
8;481
9;491
10;500
11;504
12;510
13;517
14;522
15;525
0;527
1;526
2;524
3;522
4;516
5;511
6;512
7;514
8;514
9;515
10;523
11;537
12;547
13;551
14;552
15;550
0;545
1;541
2;536
3;529
4;526
5;523
6;519
7;520
8;524
9;527
10;532
11;536
12;539
13;543
14;552
15;559
0;560
1;560
2;556
3;550
4;544
5;537
6;530
7;526
8;526
9;524
10;524
11;530
12;539
13;546
14;554
15;559
0;564
1;566
2;563
3;560
4;556
5;553
6;548
7;543
8;541
9;539
10;539
11;542
12;547
13;551
14;554
15;559
0;564
1;566
2;566
3;564
4;561
5;555
6;546
7;537
8;527
9;527
10;534
11;538
12;547
13;557
14;564
15;569
0;575
1;577
2;577
3;579
4;578
5;573
6;568
7;562
8;556
9;550
10;549
11;547
12;547
13;553
14;563
15;570
0;574
1;579
2;585
3;587
4;588
5;585
6;581
7;579
8;576
9;571
10;568
11;568
12;568
13;569
14;572
15;578
0;580
1;588
2;592
3;593
4;593
5;593
6;589
7;585
8;580
9;574
10;567
11;563
12;563
13;564
14;570
15;578
0;588
1;595
2;599
3;600
4;599
5;595
6;591
7;585
8;580
9;573
10;569
11;564
12;563
13;562
14;563
15;566
0;571
1;575
2;580
3;585
4;587
5;586
6;585
7;580
8;574
9;568
10;562
11;556
12;551
13;549
14;549
15;548
0;550
1;553
2;557
3;562
4;569
5;572
6;568
7;563
8;558
9;549
10;540
11;531
12;523
13;521
14;520
15;523
0;531
1;536
2;536
3;538
4;544
5;547
6;546
7;545
8;542
9;531
10;520
11;510
12;497
13;487
14;483
15;477
0;472
1;472
2;474
3;478
4;480
5;482
6;481
7;480
8;477
9;472
10;466
11;460
12;454
13;448
14;444
15;444
0;443
1;441
2;445
3;448
4;452
5;459
6;464
7;465
8;464
9;462
10;457
11;451
12;446
13;442
14;438
15;435
0;434
1;435
2;440
3;448
4;457
5;462
6;467
7;472
8;470
9;468
10;465
11;462
12;456
13;450
14;442
15;435
0;434
1;435
2;437
3;441
4;445
5;451
6;456
7;459
8;458
9;457
10;456
11;453
12;447
13;440
14;433
15;428
0;427
1;428
2;431
3;435
4;441
5;447
6;452
7;460
8;466
9;468
10;469
11;467
12;465
13;460
14;457
15;452
0;445
1;443
2;444
3;445
4;448
5;454
6;458
7;461
8;464
9;467
10;468
11;471
12;471
13;463
14;451
15;447
0;446
1;443
2;445
3;449
4;454
5;459
6;465
7;471
8;475
9;483
10;487
11;488
12;486
13;484
14;481
15;479
0;476
1;471
2;467
3;467
4;470
5;473
6;481
7;489
8;499
9;507
10;510
11;511
12;510
13;508
14;507
15;499
0;492
1;482
2;475
3;474
4;478
5;483
6;489
7;496
8;501
9;506
10;509
11;509
12;509
13;512
14;512
15;505
0;498
1;495
2;496
3;496
4;498
5;507
6;513
7;517
8;521
9;524
10;527
11;531
12;530
13;527
14;527
15;525
0;521
1;519
2;514
3;506
4;502
5;499
6;499
7;499
8;506
9;513
10;516
11;521
12;524
13;527
14;532
15;536
0;532
1;526
2;523
3;516
4;508
5;507
6;507
7;506
8;509
9;516
10;523
11;527
12;533
13;534
14;532
15;533
0;531
1;526
2;521
3;516
4;511
5;508
6;510
7;511
8;514
9;518
10;521
11;523
12;529
13;534
14;537
15;539
0;538
1;535
2;531
3;528
4;524
5;518
6;514
7;514
8;515
9;517
10;523
11;530
12;536
13;542
14;548
15;551
0;552
1;552
2;551
3;546
4;543
5;536
6;531
7;529
8;530
9;532
10;537
11;545
12;554
13;562
14;569
15;570
0;567
1;567
2;565
3;559
4;551
5;543
6;536
7;528
8;525
9;526
10;527
11;533
12;540
13;545
14;551
15;557
0;561
1;561
2;558
3;552
4;545
5;536
6;528
7;519
8;513
9;512
10;512
11;511
12;515
13;521
14;525
15;529
0;533
1;531
2;534
3;536
4;531
5;528
6;523
7;520
8;515
9;513
10;512
11;509
12;506
13;510
14;517
15;523
0;528
1;530
2;528
3;527
4;523
5;513
6;503
7;497
8;492
9;488
10;490
11;489
12;487
13;493
14;499
15;506
0;513
1;517
2;521
3;521
4;519
5;516
6;510
7;505
8;500
9;494
10;492
11;491
12;492
13;493
14;502
15;510
0;514
1;519
2;521
3;520
4;520
5;518
6;513
7;507
8;502
9;497
10;493
11;492
12;493
13;494
14;497
15;502
0;508
1;516
2;521
3;525
4;525
5;525
6;524
7;517
8;511
9;504
10;495
11;489
12;489
13;491
14;492
15;497
0;506
1;511
2;516
3;524
4;532
5;535
6;536
7;536
8;540
9;548
10;555
11;562
12;571
13;583
14;597
15;614
0;639
1;666
2;691
3;719
4;741
5;758
6;771
7;783
8;793
9;803
10;812
11;811
12;807
13;799
14;788
15;772
0;751
1;725
2;697
3;675
4;648
5;610
6;571
7;536
8;503
9;469
10;436
11;409
12;387
13;372
14;364
15;359
0;358
1;362
2;367
3;373
4;381
5;390
6;398
7;403
8;406
9;406
10;403
11;404
12;405
13;403
14;403
15;407
0;409
1;412
2;419
3;428
4;438
5;448
6;455
7;462
8;468
9;475
10;476
11;474
12;464
13;455
14;455
15;459
0;463
1;465
2;471
3;481
4;487
5;490
6;495
7;496
8;497
9;498
10;496
11;491
12;485
13;481
14;478
15;472
0;472
1;473
2;475
3;480
4;486
5;493
6;497
7;503
8;507
9;510
10;511
11;512
12;506
13;499
14;494
15;488
0;486
1;487
2;492
3;494
4;497
5;502
6;504
7;511
8;516
9;517
10;517
11;514
12;509
13;502
14;497
15;493
0;488
1;490
2;493
3;495
4;500
5;505
6;508
7;513
8;518
9;521
10;520
11;520
12;519
13;513
14;509
15;503
0;495
1;491
2;492
3;496
4;500
5;507
6;509
7;512
8;520
9;526
10;531
11;533
12;529
13;524
14;515
15;506
0;498
1;492
2;489
3;488
4;491
5;496
6;501
7;503
8;508
9;509
10;513
11;516
12;520
13;525
14;524
15;518
0;509
1;501
2;498
3;502
4;504
5;502
6;505
7;510
8;513
9;517
10;524
11;528
12;530
13;529
14;525
15;518
0;510
1;505
2;500
3;496
4;498
5;500
6;501
7;507
8;515
9;522
10;530
11;536
12;535
13;531
14;527
15;523
0;515
1;511
2;507
3;503
4;503
5;504
6;507
7;511
8;516
9;522
10;528
11;534
12;538
13;538
14;536
15;531
0;521
1;511
2;503
3;499
4;499
5;500
6;496
7;493
8;495
9;500
10;505
11;511
12;518
13;521
14;520
15;519
0;512
1;505
2;499
3;492
4;482
5;475
6;473
7;472
8;472
9;479
10;489
11;494
12;498
13;504
14;506
15;504
0;502
1;497
2;487
3;479
4;468
5;459
6;453
7;448
8;446
9;448
10;453
11;461
12;467
13;472
14;476
15;473
0;467
1;457
2;448
3;437
4;424
5;415
6;408
7;403
8;401
9;401
10;402
11;406
12;410
13;416
14;421
15;423
0;423
1;423
2;420
3;418
4;415
5;412
6;407
7;402
8;400
9;397
10;400
11;408
12;418
13;426
14;435
15;441
0;444
1;446
2;446
3;444
4;438
5;433
6;424
7;416
8;416
9;419
10;421
11;424
12;431
13;440
14;447
15;454
0;459
1;461
2;468
3;469
4;464
5;459
6;455
7;448
8;441
9;439
10;439
11;441
12;445
13;449
14;455
15;462
0;469
1;474
2;474
3;474
4;470
5;465
6;463
7;462
8;460
9;457
10;457
11;460
12;463
13;469
14;473
15;478
0;483
1;488
2;489
3;491
4;491
5;488
6;480
7;476
8;468
9;463
10;461
11;461
12;463
13;467
14;475
15;483
0;489
1;496
2;502
3;505
4;507
5;505
6;498
7;490
8;485
9;485
10;481
11;478
12;477
13;478
14;482
15;488
0;496
1;503
2;508
3;513
4;515
5;515
6;511
7;504
8;499
9;498
10;494
11;487
12;486
13;486
14;489
15;497
0;504
1;510
2;516
3;521
4;525
5;526
6;527
7;524
8;519
9;513
10;510
11;507
12;504
13;505
14;510
15;513
0;519
1;524
2;530
3;538
4;542
5;544
6;545
7;546
8;544
9;538
10;531
11;521
12;509
13;501
14;498
15;498
0;502
1;510
2;519
3;527
4;534
5;538
6;543
7;546
8;543
9;537
10;524
11;516
12;508
13;501
14;501
15;502
0;504
1;511
2;520
3;530
4;536
5;538
6;537
7;538
8;538
9;532
10;522
11;514
12;508
13;505
14;505
15;508
0;511
1;513
2;519
3;524
4;531
5;538
6;542
7;544
8;545
9;543
10;537
11;532
12;529
13;527
14;520
15;517
0;517
1;514
2;516
3;521
4;530
5;540
6;550
7;555
8;556
9;555
10;548
11;539
12;530
13;520
14;514
15;512
0;514
1;516
2;518
3;526
4;533
5;540
6;546
7;551
8;555
9;557
10;555
11;550
12;542
13;533
14;524
15;518
0;512
1;508
2;506
3;508
4;512
5;518
6;526
7;533
8;534
9;531
10;529
11;526
12;519
13;513
14;510
15;505
0;499
1;496
2;497
3;501
4;507
5;515
6;522
7;530
8;539
9;543
10;545
11;546
12;542
13;536
14;532
15;528
0;524
1;523
2;523
3;522
4;519
5;522
6;525
7;528
8;533
9;537
10;537
11;536
12;536
13;536
14;531
15;523
0;514
1;509
2;509
3;511
4;514
5;517
6;524
7;531
8;539
9;547
10;552
11;555
12;558
13;557
14;552
15;545
0;540
1;534
2;529
3;529
4;527
5;527
6;532
7;537
8;545
9;555
10;561
11;563
12;565
13;564
14;560
15;552
0;543
1;532
2;519
3;510
4;507
5;503
6;503
7;508
8;513
9;517
10;521
11;524
12;525
13;523
14;517
15;510
0;502
1;494
2;486
3;479
4;473
5;472
6;471
7;474
8;481
9;488
10;495
11;506
12;508
13;506
14;505
15;501
0;495
1;484
2;475
3;467
4;461
5;460
6;461
7;463
8;470
9;477
10;483
11;490
12;496
13;499
14;498
15;499
0;498
1;493
2;488
3;482
4;477
5;474
6;472
7;470
8;472
9;481
10;489
11;494
12;499
13;503
14;504
15;504
0;502
1;497
2;491
3;486
4;483
5;481
6;479
7;476
8;475
9;476
10;481
11;487
12;491
13;496
14;502
15;505
0;507
1;510
2;518
3;519
4;512
5;506
6;498
7;493
8;490
9;489
10;492
11;493
12;495
13;496
14;501
15;503
0;502
1;503
2;499
3;493
4;484
5;478
6;473
7;470
8;476
9;483
10;489
11;498
12;507
13;517
14;527
15;534
0;542
1;553
2;564
3;574
4;581
5;592
6;603
7;616
8;636
9;658
10;680
11;700
12;723
13;746
14;770
15;793
0;814
1;822
2;816
3;806
4;788
5;757
6;726
7;693
8;657
9;625
10;593
11;560
12;532
13;507
14;480
15;454
0;431
1;409
2;390
3;376
4;363
5;352
6;344
7;339
8;335
9;333
10;334
11;338
12;345
13;357
14;370
15;382
0;392
1;400
2;409
3;417
4;425
5;429
6;424
7;416
8;409
9;403
10;403
11;408
12;412
13;419
14;430
15;440
0;449
1;458
2;465
3;470
4;474
5;474
6;471
7;469
8;466
9;463
10;459
11;460
12;462
13;464
14;470
15;479
0;487
1;496
2;502
3;506
4;508
5;508
6;506
7;498
8;493
9;490
10;485
11;482
12;483
13;483
14;485
15;491
0;496
1;500
2;507
3;512
4;513
5;513
6;513
7;511
8;505
9;499
10;492
11;488
12;486
13;484
14;483
15;487
0;493
1;499
2;505
3;515
4;521
5;519
6;521
7;519
8;516
9;511
10;509
11;508
12;504
13;503
14;506
15;507
0;508
1;511
2;514
3;518
4;523
5;525
6;523
7;524
8;521
9;515
10;511
11;504
12;502
13;501
14;504
15;502
0;500
1;503
2;509
3;517
4;524
5;531
6;535
7;536
8;536
9;532
10;526
11;523
12;517
13;513
14;511
15;509
0;507
1;508
2;512
3;517
4;523
5;531
6;536
7;539
8;540
9;539
10;534
11;533
12;529
13;523
14;521
15;524
0;525
1;527
2;532
3;541
4;550
5;560
6;569
7;574
8;574
9;573
10;568
11;561
12;554
13;547
14;544
15;539
0;538
1;540
2;541
3;547
4;553
5;559
6;566
7;574
8;577
9;578
10;577
11;572
12;566
13;564
14;562
15;559
0;558
1;557
2;556
3;558
4;564
5;570
6;575
7;582
8;586
9;589
10;590
11;588
12;583
13;577
14;571
15;563
0;559
1;558
2;556
3;555
4;559
5;563
6;570
7;574
8;575
9;574
10;573
11;575
12;573
13;567
14;560
15;553
0;546
1;537
2;532
3;531
4;532
5;539
6;545
7;551
8;557
9;560
10;560
11;560
12;558
13;555
14;546
15;537
0;526
1;519
2;513
3;509
4;506
5;507
6;512
7;517
8;520
9;525
10;525
11;521
12;520
13;515
14;507
15;498
0;489
1;484
2;484
3;483
4;477
5;477
6;482
7;486
8;489
9;493
10;497
11;496
12;495
13;495
14;492
15;486
0;479
1;473
2;467
3;461
4;458
5;455
6;455
7;460
8;467
9;475
10;482
11;487
12;489
13;488
14;485
15;481
0;477
1;472
2;464
3;457
4;454
5;453
6;454
7;460
8;469
9;474
10;480
11;487
12;492
13;494
14;494
15;489
0;481
1;475
2;472
3;463
4;455
5;453
6;454
7;455
8;461
9;468
10;475
11;483
12;488
13;491
14;492
15;494
0;492
1;486
2;483
3;477
4;474
5;472
6;471
7;470
8;472
9;478
10;483
11;488
12;494
13;496
14;495
15;494
0;492
1;486
2;480
3;473
4;467
5;463
6;460
7;461
8;463
9;468
10;473
11;478
12;483
13;491
14;493
15;493
0;491
1;488
2;485
3;478
4;469
5;462
6;463
7;469
8;470
9;472
10;481
11;491
12;497
13;500
14;500
15;500
0;500
1;500
2;496
3;489
4;485
5;483
6;477
7;473
8;475
9;479
10;483
11;489
12;497
13;503
14;509
15;513
0;513
1;509
2;504
3;502
4;498
5;495
6;491
7;488
8;487
9;488
10;489
11;491
12;495
13;496
14;497
15;503
0;506
1;509
2;511
3;510
4;508
5;503
6;495
7;489
8;485
9;486
10;489
11;495
12;500
13;506
14;509
15;512
0;518
1;518
2;516
3;515
4;509
5;500
6;494
7;487
8;480
9;476
10;471
11;468
12;469
13;476
14;486
15;493
0;502
1;504
2;505
3;505
4;499
5;494
6;491
7;488
8;485
9;481
10;480
11;481
12;483
13;485
14;492
15;498
0;504
1;510
2;515
3;515
4;513
5;509
6;503
7;497
8;492
9;486
10;483
11;486
12;486
13;487
14;495
15;500
0;503
1;507
2;511
3;511
4;511
5;510
6;507
7;501
8;498
9;494
10;490
11;488
12;487
13;486
14;488
15;494
0;501
1;512
2;524
3;526
4;526
5;523
6;521
7;516
8;508
9;502
10;502
11;502
12;502
13;503
14;506
15;507
0;510
1;515
2;520
3;528
4;532
5;533
6;535
7;534
8;529
9;523
10;519
11;513
12;508
13;509
14;512
15;512
0;516
1;520
2;526
3;532
4;537
5;540
6;541
7;539
8;533
9;526
10;524
11;520
12;516
13;517
14;520
15;523
0;528
1;534
2;540
3;546
4;552
5;557
6;558
7;557
8;556
9;552
10;549
11;548
12;540
13;527
14;520
15;522
0;522
1;523
2;529
3;534
4;540
5;550
6;552
7;548
8;544
9;541
10;534
11;527
12;521
13;516
14;512
15;513
0;512
1;512
2;518
3;524
4;530
5;534
6;535
7;532
8;528
9;527
10;523
11;515
12;506
13;498
14;489
15;484
0;482
1;483
2;487
3;494
4;500
5;504
6;507
7;510
8;511
9;512
10;513
11;511
12;505
13;502
14;495
15;488
0;487
1;486
2;488
3;492
4;498
5;504
6;511
7;516
8;519
9;520
10;519
11;515
12;509
13;501
14;496
15;491
0;489
1;494
2;496
3;495
4;500
5;507
6;511
7;517
8;521
9;522
10;521
11;522
12;518
13;511
14;505
15;497
0;495
1;493
2;493
3;499
4;505
5;512
6;516
7;523
8;530
9;535
10;537
11;536
12;535
13;530
14;520
15;512
0;503
1;495
2;493
3;491
4;493
5;497
6;504
7;513
8;522
9;531
10;535
11;538
12;540
13;540
14;537
15;531
0;528
1;526
2;526
3;530
4;540
5;550
6;564
7;581
8;598
9;617
10;639
11;659
12;678
13;696
14;709
15;723
0;738
1;753
2;767
3;781
4;798
5;815
6;828
7;837
8;844
9;845
10;838
11;820
12;792
13;762
14;732
15;699
0;658
1;619
2;579
3;540
4;505
5;475
6;448
7;427
8;414
9;407
10;403
11;403
12;401
13;399
14;397
15;395
0;393
1;392
2;394
3;396
4;399
5;404
6;410
7;416
8;427
9;439
10;449
11;456
12;463
13;467
14;470
15;475
0;477
1;475
2;473
3;473
4;472
5;473
6;478
7;482
8;488
9;496
10;503
11;509
12;519
13;524
14;527
15;529
0;529
1;525
2;523
3;521
4;516
5;512
6;513
7;515
8;518
9;520
10;528
11;531
12;535
13;540
14;543
15;546
0;546
1;542
2;537
3;532
4;528
5;523
6;519
7;520
8;521
9;521
10;527
11;532
12;535
13;540
14;545
15;547
0;547
1;545
2;542
3;536
4;529
5;521
6;514
7;512
8;513
9;514
10;519
11;528
12;536
13;540
14;546
15;551
0;552
1;552
2;549
3;544
4;540
5;540
6;539
7;536
8;534
9;534
10;534
11;536
12;540
13;547
14;554
15;561
0;564
1;564
2;567
3;566
4;561
5;553
6;542
7;536
8;531
9;530
10;527
11;526
12;531
13;538
14;546
15;554
0;560
1;563
2;562
3;560
4;554
5;545
6;537
7;531
8;530
9;531
10;530
11;531
12;535
13;540
14;547
15;552
0;561
1;565
2;565
3;563
4;562
5;558
6;551
7;547
8;542
9;539
10;538
11;539
12;539
13;545
14;552
15;557
0;563
1;571
2;574
3;574
4;572
5;569
6;566
7;561
8;558
9;557
10;555
11;554
12;553
13;551
14;555
15;560
0;566
1;571
2;576
3;578
4;578
5;578
6;572
7;565
8;558
9;549
10;542
11;538
12;535
13;534
14;536
15;547
0;558
1;565
2;572
3;575
4;575
5;573
6;566
7;555
8;544
9;540
10;534
11;529
12;527
13;523
14;523
15;525
0;531
1;539
2;543
3;548
4;553
5;555
6;548
7;539
8;529
9;520
10;512
11;505
12;498
13;496
14;494
15;494
0;499
1;504
2;508
3;513
4;516
5;516
6;514
7;511
8;505
9;496
10;486
11;475
12;467
13;462
14;462
15;460
0;459
1;465
2;470
3;476
4;480
5;480
6;476
7;476
8;477
9;471
10;461
11;455
12;448
13;440
14;434
15;433
0;435
1;438
2;443
3;448
4;453
5;460
6;462
7;460
8;459
9;453
10;445
11;438
12;433
13;428
14;423
15;422
0;420
1;420
2;427
3;434
4;439
5;445
6;449
7;451
8;449
9;448
10;444
11;440
12;436
13;431
14;427
15;426
0;427
1;427
2;427
3;432
4;438
5;444
6;448
7;452
8;454
9;452
10;448
11;441
12;434
13;430
14;425
15;424
0;425
1;423
2;426
3;432
4;437
5;443
6;452
7;459
8;460
9;462
10;467
11;468
12;458
13;446
14;438
15;430
0;426
1;426
2;429
3;432
4;436
5;440
6;446
7;452
8;458
9;460
10;462
11;465
12;464
13;455
14;450
15;447
0;445
1;443
2;445
3;448
4;452
5;455
6;456
7;460
8;467
9;471
10;469
11;467
12;465
13;463
14;458
15;450
0;443
1;439
2;439
3;441
4;444
5;449
6;456
7;462
8;465
9;472
10;475
11;473
12;474
13;471
14;464
15;457
0;450
1;443
2;440
3;440
4;439
5;441
6;446
7;451
8;456
9;462
10;467
11;468
12;469
13;470
14;464
15;458
0;453
1;446
2;440
3;438
4;440
5;441
6;447
7;457
8;467
9;474
10;478
11;480
12;480
13;479
14;477
15;472
0;468
1;464
2;457
3;452
4;452
5;450
6;452
7;459
8;469
9;477
10;484
11;492
12;499
13;499
14;496
15;494
0;488
1;479
2;474
3;469
4;466
5;464
6;464
7;466
8;473
9;480
10;486
11;494
12;499
13;501
14;501
15;502
0;501
1;492
2;484
3;475
4;468
5;464
6;462
7;463
8;468
9;473
10;480
11;486
12;492
13;497
14;498
15;497
0;497
1;494
2;486
3;481
4;476
5;472
6;471
7;471
8;471
9;472
10;480
11;490
12;496
13;500
14;498
15;495
0;494
1;490
2;487
3;486
4;482
5;477
6;475
7;473
8;471
9;472
10;476
11;480
12;484
13;489
14;493
15;494
0;495
1;498
2;496
3;490
4;483
5;476
6;470
7;466
8;465
9;469
10;473
11;481
12;489
13;494
14;499
15;502
0;503
1;505
2;504
3;497
4;491
5;486
6;478
7;474
8;473
9;474
10;476
11;481
12;490
13;498
14;506
15;515
0;522
1;521
2;521
3;519
4;511
5;504
6;499
7;495
8;495
9;500
10;503
11;505
12;510
13;514
14;518
15;521
0;524
1;522
2;519
3;516
4;511
5;506
6;500
7;494
8;489
9;487
10;489
11;492
12;498
13;506
14;514
15;521
0;529
1;534
2;537
3;540
4;540
5;535
6;527
7;523
8;517
9;512
10;509
11;507
12;508
13;512
14;522
15;533
0;541
1;548
2;550
3;550
4;549
5;540
6;526
7;516
8;508
9;499
10;495
11;494
12;495
13;499
14;505
15;510
0;513
1;519
2;524
3;524
4;522
5;519
6;512
7;503
8;495
9;488
10;482
11;479
12;479
13;480
14;482
15;490
0;497
1;506
2;514
3;516
4;515
5;513
6;511
7;503
8;494
9;487
10;480
11;475
12;474
13;475
14;480
15;488
0;496
1;503
2;510
3;518
4;523
5;525
6;523
7;519
8;514
9;507
10;495
11;485
12;479
13;481
14;485
15;490
0;499
1;508
2;515
3;519
4;523
5;525
6;528
7;531
8;531
9;524
10;517
11;507
12;499
13;498
14;495
15;493
0;497
1;512
2;520
3;523
4;524
5;523
6;519
7;516
8;514
9;509
10;502
11;499
12;495
13;492
14;493
15;495
0;499
1;504
2;508
3;513
4;521
5;529
6;536
7;539
8;539
9;535
10;528
11;521
12;515
13;510
14;507
15;510
0;513
1;518
2;530
3;542
4;555
5;568
6;579
7;592
8;607
9;623
10;633
11;642
12;653
13;663
14;679
15;696
0;715
1;735
2;758
3;781
4;801
5;820
6;835
7;844
8;845
9;842
10;830
11;804
12;772
13;742
14;706
15;669
0;632
1;594
2;558
3;529
4;505
5;481
6;461
7;443
8;429
9;414
10;404
11;392
12;382
13;375
14;373
15;371
0;367
1;366
2;366
3;373
4;384
5;398
6;411
7;423
8;430
9;436
10;439
11;441
12;440
13;439
14;439
15;437
0;437
1;438
2;442
3;447
4;451
5;461
6;471
7;481
8;491
9;502
10;511
11;515
12;514
13;511
14;506
15;500
0;495
1;493
2;494
3;492
4;492
5;499
6;510
7;515
8;519
9;523
10;522
11;522
12;521
13;519
14;514
15;509
0;504
1;497
2;492
3;492
4;491
5;494
6;504
7;513
8;523
9;532
10;536
11;536
12;533
13;532
14;527
15;520
0;515
1;511
2;506
3;505
4;503
5;500
6;502
7;510
8;517
9;525
10;534
11;539
12;539
13;537
14;532
15;524
0;515
1;507
2;499
3;496
4;495
5;493
6;497
7;504
8;513
9;520
10;525
11;533
12;540
13;541
14;536
15;530
0;522
1;514
2;508
3;507
4;509
5;512
6;516
7;521
8;526
9;529
10;533
11;538
12;542
13;542
14;541
15;537
0;531
1;524
2;520
3;517
4;512
5;510
6;512
7;515
8;517
9;523
10;528
11;535
12;543
13;548
14;550
15;551
0;552
1;551
2;547
3;544
4;538
5;532
6;530
7;529
8;529
9;533
10;541
11;546
12;551
13;556
14;555
15;551
0;549
1;544
2;541
3;545
4;546
5;540
6;536
7;537
8;539
9;545
10;550
11;558
12;568
13;574
14;577
15;579
0;578
1;576
2;574
3;571
4;568
5;561
6;557
7;554
8;553
9;552
10;555
11;562
12;566
13;570
14;575
15;578
0;579
1;578
2;575
3;571
4;563
5;558
6;553
7;550
8;551
9;550
10;551
11;555
12;561
13;567
14;571
15;576
0;578
1;579
2;577
3;569
4;558
5;549
6;543
7;535
8;528
9;526
10;525
11;526
12;531
13;536
14;540
15;543
0;544
1;543
2;540
3;538
4;532
5;524
6;518
7;508
8;499
9;495
10;496
11;498
12;503
13;508
14;509
15;512
0;516
1;518
2;518
3;514
4;507
5;498
6;488
7;481
8;476
9;467
10;462
11;460
12;457
13;457
14;465
15;470
0;476
1;484
2;490
3;490
4;488
5;487
6;479
7;469
8;461
9;454
10;448
11;449
12;452
13;454
14;463
15;470
0;478
1;485
2;489
3;491
4;492
5;493
6;486
7;476
8;467
9;461
10;457
11;455
12;455
13;454
14;453
15;460
0;471
1;480
2;491
3;494
4;492
5;491
6;487
7;479
8;470
9;464
10;458
11;455
12;455
13;455
14;455
15;456
0;463
1;471
2;480
3;487
4;489
5;487
6;484
7;479
8;473
9;467
10;461
11;454
12;447
13;448
14;449
15;453
0;462
1;471
2;481
3;488
4;492
5;493
6;491
7;487
8;483
9;480
10;474
11;467
12;467
13;466
14;465
15;457
0;454
1;457
2;461
3;468
4;477
5;482
6;485
7;488
8;491
9;486
10;481
11;479
12;474
13;469
14;469
15;470
0;472
1;480
2;490
3;498
4;508
5;514
6;514
7;511
8;506
9;500
10;494
11;489
12;483
13;477
14;474
15;475
0;475
1;478
2;486
3;496
4;505
5;512
6;515
7;515
8;514
9;512
10;506
11;500
12;496
13;492
14;488
15;487
0;489
1;488
2;490
3;494
4;494
5;499
6;506
7;512
8;513
9;513
10;507
11;500
12;494
13;490
14;485
15;483
0;483
1;483
2;484
3;489
4;494
5;498
6;504
7;510
8;512
9;512
10;512
11;511
12;505
13;502
14;495
15;486
0;482
1;484
2;486
3;491
4;500
5;508
6;514
7;519
8;519
9;517
10;516
11;514
12;509
13;503
14;502
15;502
0;496
1;491
2;489
3;491
4;495
5;503
6;508
7;512
8;519
9;524
10;525
11;524
12;522
13;517
14;508
15;502
0;498
1;495
2;495
3;494
4;496
5;498
6;504
7;510
8;516
9;522
10;522
11;521
12;519
13;512
14;506
15;502
0;498
1;490
2;485
3;485
4;484
5;486
6;493
7;500
8;509
9;521
10;529
11;529
12;528
13;527
14;526
15;524
0;523
1;519
2;513
3;510
4;508
5;508
6;512
7;520
8;524
9;529
10;531
11;530
12;526
13;524
14;518
15;511
0;505
1;500
2;494
3;493
4;492
5;489
6;491
7;498
8;507
9;512
10;522
11;534
12;540
13;545
14;548
15;547
0;540
1;532
2;525
3;519
4;515
5;514
6;515
7;519
8;527
9;535
10;540
11;547
12;552
13;550
14;546
15;541
0;535
1;529
2;523
3;516
4;509
5;506
6;505
7;507
8;511
9;518
10;524
11;526
12;530
13;531
14;531
15;531
0;527
1;520
2;513
3;505
4;495
5;489
6;484
7;480
8;479
9;484
10;491
11;496
12;501
13;507
14;510
15;511
0;511
1;505
2;496
3;487
4;481
5;473
6;469
7;472
8;470
9;470
10;473
11;478
12;484
13;492
14;500
15;503
0;501
1;499
2;492
3;488
4;489
5;488
6;484
7;480
8;482
9;486
10;487
11;493
12;499
13;501
14;504
15;503
0;500
1;497
2;496
3;493
4;492
5;491
6;486
7;481
8;480
9;479
10;480
11;488
12;495
13;499
14;508
15;517
0;519
1;517
2;515
3;509
4;504
5;497
6;488
7;484
8;483
9;483
10;481
11;483
12;491
13;496
14;503
15;508
0;512
1;515
2;515
3;515
4;513
5;506
6;501
7;495
8;489
9;485
10;481
11;478
12;480
13;490
14;497
15;503
0;513
1;519
2;525
3;531
4;536
5;538
6;543
7;553
8;561
9;574
10;590
11;606
12;627
13;653
14;683
15;710
0;736
1;762
2;780
3;793
4;806
5;814
6;814
7;810
8;802
9;787
10;764
11;737
12;707
13;679
14;654
15;629
0;598
1;566
2;534
3;500
4;470
5;443
6;416
7;391
8;373
9;358
10;349
11;343
12;340
13;341
14;348
15;359
0;370
1;379
2;388
3;395
4;399
5;403
6;405
7;403
8;401
9;401
10;398
11;400
12;405
13;408
14;414
15;423
0;434
1;445
2;457
3;469
4;476
5;483
6;487
7;488
8;485
9;482
10;481
11;479
12;477
13;475
14;477
15;487
0;496
1;501
2;505
3;510
4;515
5;515
6;516
7;512
8;505
9;499
10;497
11;495
12;493
13;492
14;495
15;498
0;503
1;512
2;520
3;527
4;532
5;534
6;536
7;537
8;533
9;528
10;520
11;512
12;503
13;499
14;499
15;499
0;506
1;513
2;520
3;525
4;531
5;537
6;539
7;539
8;538
9;535
10;529
11;525
12;519
13;512
14;510
15;511
0;511
1;512
2;516
3;522
4;527
5;534
6;541
7;544
8;545
9;544
10;538
11;532
12;528
13;523
14;519
15;516
0;517
1;518
2;523
3;529
4;536
5;544
6;548
7;551
8;552
9;550
10;545
11;541
12;540
13;540
14;536
15;531
0;529
1;524
2;522
3;527
4;534
5;543
6;553
7;561
8;565
9;568
10;568
11;567
12;564
13;559
14;551
15;543
0;537
1;535
2;535
3;539
4;543
5;545
6;549
7;554
8;559
9;560
10;562
11;560
12;554
13;548
14;543
15;541
0;542
1;543
2;542
3;544
4;548
5;556
6;565
7;573
8;580
9;585
10;585
11;582
12;578
13;564
14;556
15;550
0;544
1;540
2;539
3;538
4;540
5;547
6;553
7;560
8;566
9;575
10;580
11;583
12;581
13;578
14;572
15;565
0;559
1;551
2;547
3;547
4;548
5;550
6;556
7;561
8;566
9;572
10;575
11;576
12;575
13;574
14;566
15;559
0;551
1;543
2;539
3;537
4;539
5;539
6;542
7;551
8;553
9;556
10;558
11;558
12;555
13;548
14;541
15;534
0;530
1;525
2;519
3;514
4;515
5;514
6;511
7;512
8;517
9;523
10;526
11;525
12;523
13;523
14;519
15;515
0;509
1;501
2;495
3;494
4;494
5;491
6;488
7;489
8;495
9;502
10;508
11;513
12;513
13;508
14;504
15;497
0;489
1;480
2;476
3;470
4;465
5;462
6;461
7;463
8;467
9;473
10;479
11;485
12;490
13;493
14;494
15;492
0;488
1;485
2;480
3;476
4;473
5;471
6;470
7;470
8;473
9;481
10;487
11;494
12;501
13;506
14;508
15;509
0;509
1;507
2;502
3;495
4;492
5;487
6;485
7;483
8;480
9;481
10;489
11;494
12;498
13;506
14;511
15;507
0;502
1;496
2;489
3;485
4;481
5;475
6;471
7;469
8;472
9;474
10;480
11;489
12;495
13;502
14;507
15;508
0;508
1;505
2;501
3;497
4;490
5;486
6;481
7;479
8;479
9;478
10;481
11;489
12;497
13;502
14;506
15;512
0;513
1;515
2;516
3;511
4;504
5;498
6;492
7;488
8;487
9;489
10;488
11;490
12;499
13;509
14;516
15;519
0;523
1;523
2;522
3;521
4;516
5;511
6;506
7;499
8;493
9;491
10;492
11;491
12;495
13;503
14;507
15;512
0;518
1;519
2;519
3;520
4;521
5;512
6;502
7;497
8;493
9;491
10;494
11;492
12;491
13;494
14;502
15;509
0;513
1;519
2;523
3;523
4;524
5;519
6;513
7;506
8;499
9;495
10;492
11;492
12;492
13;494
14;501
15;506
0;512
1;518
2;523
3;526
4;528
5;528
6;525
7;521
8;517
9;508
10;502
11;497
12;495
13;495
14;499
15;507
0;515
1;524
2;530
3;531
4;532
5;531
6;526
7;519
8;515
9;511
10;505
11;501
12;500
13;503
14;507
15;514
0;521
1;525
2;527
3;531
4;532
5;532
6;532
7;526
8;517
9;511
10;504
11;499
12;496
13;496
14;497
15;500
0;506
1;512
2;518
3;526
4;533
5;530
6;526
7;524
8;518
9;510
10;502
11;497
12;494
13;493
14;494
15;498
0;503
1;511
2;518
3;526
4;535
5;543
6;546
7;545
8;543
9;540
10;535
11;527
12;519
13;517
14;514
15;512
0;514
1;519
2;521
3;524
4;526
5;530
6;529
7;527
8;526
9;521
10;513
11;506
12;499
13;495
14;491
15;490
0;488
1;490
2;493
3;496
4;499
5;502
6;502
7;499
8;496
9;493
10;486
11;478
12;469
13;459
14;452
15;450
0;449
1;450
2;457
3;469
4;477
5;483
6;490
7;493
8;493
9;492
10;489
11;485
12;482
13;478
14;472
15;472
0;473
1;472
2;472
3;475
4;480
5;487
6;493
7;494
8;496
9;497
10;498
11;496
12;490
13;483
14;477
15;471
0;465
1;465
2;466
3;472
4;482
5;490
6;498
7;507
8;515
9;519
10;522
11;517
12;509
13;504
14;497
15;488
0;482
1;480
2;476
3;475
4;478
5;484
6;490
7;499
8;508
9;511
10;512
11;513
12;512
13;508
14;503
15;497
0;492
1;490
2;492
3;492
4;494
5;497
6;505
7;513
8;521
9;528
10;529
11;527
12;524
13;520
14;514
15;509
0;504
1;502
2;507
3;515
4;522
5;532
6;547
7;562
8;580
9;598
10;615
11;630
12;645
13;662
14;676
15;692
0;708
1;721
2;736
3;753
4;767
5;780
6;800
7;819
8;831
9;839
10;840
11;830
12;807
13;776
14;745
15;708
0;673
1;634
2;592
3;553
4;519
5;489
6;463
7;443
8;426
9;415
10;412
11;412
12;409
13;404
14;404
15;406
0;402
1;398
2;394
3;387
4;386
5;389
6;394
7;401
8;411
9;424
10;434
11;443
12;449
13;452
14;455
15;460
0;462
1;462
2;463
3;461
4;461
5;462
6;464
7;470
8;480
9;490
10;499
11;509
12;521
13;528
14;531
15;530
0;525
1;519
2;516
3;511
4;503
5;499
6;500
7;500
8;502
9;508
10;515
11;520
12;527
13;534
14;535
15;536
0;535
1;530
2;526
3;521
4;518
5;512
6;513
7;512
8;510
9;514
10;519
11;523
12;527
13;534
14;540
15;542
0;542
1;539
2;534
3;529
4;526
5;521
6;519
7;522
8;523
9;524
10;528
11;534
12;538
13;544
14;548
15;549
0;548
1;548
2;549
3;543
4;536
5;529
6;528
7;527
8;525
9;523
10;524
11;528
12;533
13;538
14;543
15;545
0;546
1;547
2;545
3;543
4;541
5;535
6;531
7;527
8;523
9;524
10;526
11;528
12;535
13;542
14;545
15;550
0;557
1;560
2;559
3;560
4;559
5;554
6;550
7;546
8;541
9;536
10;533
11;532
12;537
13;544
14;551
15;556
0;562
1;565
2;565
3;565
4;564
5;558
6;550
7;543
8;537
9;535
10;536
11;537
12;540
13;551
14;561
15;566
0;574
1;579
2;578
3;575
4;573
5;570
6;565
7;558
8;552
9;547
10;543
11;543
12;542
13;543
14;550
15;556
0;559
1;564
2;569
3;572
4;574
5;572
6;566
7;559
8;553
9;549
10;545
11;543
12;550
13;558
14;564
15;570
0;576
1;583
2;585
3;582
4;581
5;577
6;572
7;565
8;558
9;553
10;547
11;545
12;545
13;544
14;545
15;549
0;556
1;561
2;566
3;569
4;569
5;568
6;563
7;552
8;543
9;536
10;529
11;521
12;516
13;513
14;512
15;513
0;518
1;523
2;528
3;533
4;531
5;528
6;522
7;515
8;507
9;503
10;499
11;492
12;483
13;477
14;474
15;473
0;476
1;477
2;479
3;485
4;491
5;492
6;490
7;487
8;481
9;474
10;467
11;461
12;454
13;449
14;449
15;450
0;451
1;454
2;457
3;462
4;466
5;469
6;468
7;469
8;469
9;465
10;456
11;450
12;445
13;441
14;441
15;441
0;440
1;446
2;458
3;465
4;471
5;477
6;479
7;477
8;475
9;472
10;468
11;463
12;455
13;446
14;439
15;435
0;436
1;438
2;442
3;448
4;455
5;462
6;470
7;473
8;476
9;476
10;471
11;468
12;463
13;459
14;455
15;451
0;450
1;451
2;454
3;458
4;463
5;466
6;472
7;476
8;478
9;478
10;480
11;476
12;470
13;466
14;461
15;457
0;455
1;455
2;455
3;458
4;464
5;471
6;480
7;490
8;496
9;497
10;498
11;497
12;492
13;486
14;480
15;475
0;470
1;468
2;468
3;470
4;476
5;480
6;483
7;487
8;493
9;497
10;499
11;501
12;497
13;492
14;486
15;480
0;475
1;473
2;477
3;481
4;484
5;490
6;496
7;503
8;511
9;520
10;524
11;525
12;522
13;514
14;508
15;501
0;493
1;486
2;483
3;483
4;484
5;489
6;496
7;499
8;503
9;509
10;514
11;518
12;519
13;518
14;512
15;505
0;497
1;490
2;485
3;484
4;486
5;488
6;494
7;504
8;510
9;516
10;522
11;525
12;525
13;524
14;522
15;517
0;512
1;507
2;502
3;497
4;497
5;496
6;497
7;505
8;514
9;523
10;532
11;539
12;539
13;537
14;535
15;532
0;525
1;518
2;511
3;505
4;503
5;505
6;503
7;504
8;508
9;513
10;520
11;528
12;531
13;531
14;528
15;527
0;523
1;516
2;511
3;505
4;503
5;503
6;505
7;507
8;510
9;515
10;518
11;523
12;530
13;532
14;530
15;528
0;525
1;516
2;508
3;501
4;496
5;494
6;494
7;495
8;499
9;502
10;508
11;514
12;520
13;527
14;530
15;533
0;533
1;528
2;523
3;518
4;512
5;506
6;504
7;507
8;510
9;511
10;513
11;515
12;522
13;533
14;540
15;544
0;547
1;546
2;539
3;532
4;527
5;520
6;519
7;520
8;520
9;521
10;524
11;530
12;534
13;539
14;545
15;547
0;546
1;544
2;540
3;532
4;522
5;516
6;512
7;513
8;518
9;523
10;531
11;540
12;548
13;554
14;560
15;568
0;570
1;572
2;571
3;561
4;551
5;542
6;534
7;525
8;520
9;521
10;518
11;519
12;526
13;532
14;538
15;544
0;548
1;547
2;546
3;544
4;540
5;532
6;522
7;512
8;505
9;500
10;498
11;498
12;499
13;502
14;507
15;513
0;519
1;518
2;517
3;516
4;513
5;505
6;497
7;491
8;487
9;480
10;473
11;470
12;471
13;475
14;480
15;483
0;489
1;494
2;494
3;492
4;490
5;485
6;478
7;472
8;468
9;464
10;462
11;463
12;468
13;473
14;477
15;483
0;490
1;495
2;497
3;494
4;489
5;487
6;483
7;481
8;478
9;469
10;463
11;464
12;467
13;471
14;476
15;483
0;486
1;488
2;492
3;494
4;496
5;497
6;494
7;487
8;484
9;479
10;475
11;472
12;470
13;472
14;476
15;483
0;489
1;496
2;502
3;505
4;505
5;507
6;508
7;501
8;495
9;489
10;482
11;478
12;476
13;475
14;472
15;472
0;478
1;487
2;496
3;505
4;512
5;512
6;509
7;509
8;504
9;498
10;495
11;492
12;492
13;495
14;501
15;507
0;520
1;542
2;563
3;586
4;605
5;623
6;641
7;658
8;676
9;696
10;714
11;727
12;735
13;747
14;762
15;775
0;786
1;796
2;803
3;808
4;806
5;792
6;766
7;737
8;705
9;670
10;633
11;592
12;548
13;507
14;472
15;444
0;416
1;394
2;382
3;374
4;371
5;372
6;371
7;374
8;370
9;365
10;359
11;356
12;357
13;360
14;368
15;378
0;385
1;391
2;400
3;409
4;415
5;424
6;435
7;442
8;448
9;451
10;453
11;451
12;449
13;445
14;440
15;440
0;444
1;447
2;453
3;462
4;472
5;484
6;494
7;499
8;499
9;500
10;499
11;494
12;487
13;483
14;479
15;473
0;472
1;474
2;475
3;479
4;486
5;494
6;504
7;510
8;515
9;515
10;514
11;513
12;508
13;500
14;493
15;488
0;486
1;486
2;486
3;489
4;496
5;503
6;508
7;517
8;525
9;529
10;534
11;534
12;533
13;528
14;521
15;515
0;510
1;505
2;507
3;509
4;512
5;516
6;522
7;524
8;530
9;536
10;538
11;539
12;540
13;535
14;527
15;520
0;511
1;501
2;496
3;494
4;495
5;502
6;510
7;515
8;522
9;530
10;534
11;533
12;533
13;532
14;526
15;521
0;519
1;512
2;505
3;503
4;502
5;503
6;508
7;516
8;520
9;524
10;529
11;530
12;528
13;528
14;528
15;528
0;523
1;517
2;511
3;513
4;520
5;520
6;519
7;520
8;526
9;534
10;539
11;545
12;545
13;545
14;542
15;537
0;533
1;526
2;520
3;516
4;515
5;517
6;518
7;523
8;531
9;539
10;545
11;552
12;556
13;558
14;556
15;551
0;544
1;537
2;532
3;527
4;525
5;526
6;528
7;533
8;537
9;544
10;548
11;553
12;559
13;559
14;558
15;556
0;553
1;548
2;544
3;542
4;538
5;537
6;542
7;544
8;547
9;552
10;558
11;566
12;571
13;574
14;573
15;573
0;571
1;563
2;555
3;549
4;543
5;541
6;537
7;533
8;527
9;530
10;539
11;545
12;556
13;560
14;558
15;552
0;543
1;537
2;528
3;522
4;518
5;515
6;512
7;510
8;507
9;505
10;506
11;512
12;517
13;522
14;525
15;528
0;526
1;524
2;516
3;504
4;494
5;485
6;480
7;477
8;477
9;476
10;479
11;484
12;489
13;495
14;501
15;503
0;499
1;496
2;492
3;485
4;476
5;468
6;464
7;462
8;460
9;458
10;454
11;455
12;459
13;460
14;463
15;467
0;469
1;470
2;468
3;466
4;462
5;461
6;459
7;455
8;457
9;462
10;463
11;459
12;457
13;461
14;464
15;466
0;467
1;465
2;463
3;462
4;461
5;462
6;462
7;458
8;454
9;455
10;463
11;462
12;459
13;467
14;472
15;477
0;480
1;478
2;478
3;480
4;476
5;468
6;461
7;453
8;445
9;439
10;440
11;442
12;444
13;449
14;458
15;466
0;473
1;480
2;484
3;487
4;489
5;488
6;482
7;476
8;469
9;462
10;454
11;449
12;447
13;449
14;457
15;469
0;478
1;487
2;492
3;494
4;495
5;493
6;488
7;482
8;475
9;468
10;462
11;460
12;460
13;460
14;462
15;468
0;469
1;472
2;475
3;478
4;483
5;491
6;497
7;508
8;511
9;504
10;489
11;480
12;471
13;466
14;464
15;463
0;469
1;475
2;478
3;483
4;492
5;489
6;487
7;488
8;486
9;481
10;476
11;471
12;466
13;463
14;459
15;456
0;462
1;469
2;475
3;485
4;492
5;496
6;497
7;496
8;491
9;485
10;480
11;474
12;467
13;463
14;459
15;457
0;459
1;464
2;471
3;481
4;487
5;494
6;497
7;499
8;499
9;491
10;483
11;474
12;466
13;461
14;461
15;463
0;467
1;475
2;487
3;496
4;506
5;511
6;507
7;501
8;497
9;489
10;479
11;470
12;463
13;459
14;456
15;456
0;460
1;460
2;460
3;464
4;468
5;472
6;476
7;476
8;478
9;479
10;480
11;477
12;473
13;468
14;457
15;450
0;448
1;444
2;447
3;457
4;464
5;467
6;468
7;470
8;472
9;472
10;470
11;465
12;460
13;457
14;452
15;447
0;445
1;445
2;447
3;452
4;460
5;467
6;474
7;480
8;483
9;480
10;477
11;476
12;471
13;466
14;460
15;453
0;448
1;447
2;447
3;450
4;458
5;469
6;476
7;481
8;483
9;482
10;481
11;480
12;476
13;471
14;463
15;455
0;448
1;448
2;451
3;456
4;464
5;472
6;480
7;488
8;497
9;504
10;508
11;512
12;514
13;512
14;508
15;505
0;500
1;498
2;496
3;497
4;498
5;500
6;506
7;511
8;515
9;518
10;521
11;522
12;517
13;509
14;499
15;495
0;493
1;489
2;487
3;487
4;485
5;487
6;491
7;495
8;497
9;507
10;517
11;519
12;515
13;507
14;501
15;493
0;486
1;480
2;473
3;469
4;470
5;470
6;471
7;475
8;479
9;483
10;489
11;494
12;492
13;492
14;489
15;480
0;470
1;463
2;460
3;457
4;455
5;457
6;458
7;464
8;471
9;476
10;484
11;488
12;491
13;494
14;492
15;487
0;481
1;476
2;472
3;467
4;465
5;465
6;463
7;465
8;470
9;476
10;480
11;486
12;492
13;494
14;496
15;496
0;495
1;490
2;486
3;481
4;477
5;474
6;472
7;472
8;478
9;487
10;495
11;500
12;501
13;502
14;503
15;505
0;504
1;500
2;497
3;495
4;489
5;485
6;485
7;487
8;491
9;496
10;502
11;507
12;515
13;522
14;527
15;529
0;527
1;524
2;519
3;516
4;512
5;506
6;504
7;507
8;507
9;512
10;521
11;532
12;543
13;556
14;568
15;576
0;588
1;599
2;608
3;614
4;623
5;634
6;647
7;667
8;691
9;713
10;735
11;760
12;785
13;809
14;831
15;850
0;859
1;863
2;858
3;844
4;822
5;797
6;766
7;733
8;703
9;676
10;641
11;607
12;576
13;547
14;520
15;497
0;474
1;453
2;437
3;425
4;411
5;401
6;394
7;388
8;388
9;391
10;394
11;399
12;406
13;414
14;424
15;435
0;445
1;452
2;457
3;464
4;465
5;462
6;459
7;456
8;454
9;458
10;465
11;475
12;485
13;494
14;506
15;518
0;528
1;536
2;539
3;542
4;543
5;540
6;535
7;529
8;524
9;524
10;526
11;524
12;523
13;529
14;536
15;543
0;550
1;551
2;551
3;553
4;553
5;552
6;548
7;542
8;536
9;531
10;530
11;529
12;528
13;532
14;538
15;543
0;549
1;555
2;562
3;566
4;566
5;564
6;561
7;555
8;550
9;545
10;542
11;543
12;546
13;547
14;549
15;553
0;558
1;563
2;566
3;568
4;569
5;569
6;571
7;565
8;557
9;551
10;544
11;540
12;538
13;537
14;537
15;545
0;555
1;561
2;568
3;575
4;577
5;575
6;576
7;577
8;575
9;572
10;568
11;561
12;556
13;553
14;551
15;554
0;561
1;568
2;575
3;582
4;585
5;587
6;589
7;584
8;574
9;565
10;556
11;547
12;538
13;535
14;537
15;542
0;547
1;553
2;561
3;572
4;583
5;588
6;586
7;585
8;584
9;578
10;571
11;563
12;554
13;548
14;547
15;548
0;549
1;555
2;566
3;575
4;582
5;585
6;585
7;583
8;582
9;579
10;571
11;564
12;559
13;555
14;555
15;556
0;558
1;560
2;566
3;573
4;577
5;582
6;587
7;588
8;590
9;589
10;583
11;574
12;570
13;568
14;563
15;558
0;558
1;557
2;556
3;559
4;565
5;572
6;579
7;584
8;585
9;585
10;582
11;575
12;567
13;558
14;551
15;544
0;539
1;536
2;536
3;540
4;548
5;558
6;571
7;578
8;578
9;575
10;572
11;564
12;553
13;546
14;536
15;526
0;519
1;519
2;524
3;527
4;528
5;526
6;523
7;525
8;526
9;521
10;516
11;513
12;511
13;505
14;498
15;490
0;485
1;482
2;481
3;481
4;481
5;485
6;491
7;494
8;494
9;493
10;491
11;487
12;484
13;476
14;468
15;462
0;455
1;448
2;446
3;447
4;448
5;451
6;455
7;459
8;465
9;470
10;471
11;471
12;469
13;465
14;457
15;450
0;444
1;438
2;433
3;431
4;431
5;433
6;437
7;442
8;449
9;457
10;464
11;467
12;469
13;469
14;465
15;459
0;453
1;448
2;445
3;445
4;445
5;446
6;449
7;454
8;461
9;469
10;477
11;481
12;482
13;484
14;486
15;481
0;473
1;467
2;464
3;460
4;456
5;455
6;458
7;464
8;471
9;478
10;487
11;494
12;497
13;499
14;496
15;491
0;482
1;475
2;467
3;459
4;456
5;460
6;465
7;464
8;465
9;470
10;480
11;488
12;490
13;489
14;491
15;493
0;491
1;483
2;473
3;465
4;461
5;461
6;463
7;468
8;475
9;482
10;489
11;496
12;503
13;509
14;512
15;517
0;514
1;504
2;495
3;488
4;480
5;475
6;473
7;472
8;475
9;480
10;486
11;493
12;499
13;502
14;504
15;505
0;504
1;501
2;497
3;493
4;488
5;484
6;483
7;487
8;489
9;488
10;491
11;498
12;504
13;512
14;519
15;523
0;523
1;519
2;513
3;509
4;504
5;500
6;496
7;495
8;495
9;494
10;498
11;505
12;513
13;519
14;523
15;527
0;527
1;527
2;527
3;524
4;519
5;508
6;498
7;492
8;492
9;492
10;492
11;497
12;504
13;510
14;516
15;520
0;522
1;521
2;523
3;523
4;519
5;515
6;512
7;508
8;504
9;501
10;499
11;500
12;505
13;512
14;516
15;527
0;536
1;535
2;532
3;531
4;525
5;519
6;515
7;511
8;508
9;506
10;509
11;511
12;516
13;524
14;531
15;540
0;548
1;553
2;553
3;552
4;547
5;542
6;538
7;532
8;524
9;519
10;518
11;517
12;516
13;519
14;526
15;530
0;536
1;543
2;546
3;547
4;549
5;548
6;543
7;541
8;536
9;530
10;528
11;529
12;530
13;532
14;540
15;548
0;554
1;560
2;564
3;567
4;568
5;565
6;564
7;558
8;547
9;536
10;528
11;527
12;526
13;526
14;530
15;535
0;539
1;543
2;547
3;551
4;553
5;555
6;554
7;548
8;542
9;536
10;532
11;531
12;532
13;536
14;538
15;541
0;546
1;550
2;554
3;556
4;558
5;559
6;559
7;555
8;544
9;538
10;532
11;527
12;524
13;520
14;517
15;517
0;521
1;525
2;528
3;530
4;531
5;532
6;534
7;532
8;526
9;518
10;511
11;506
12;501
13;496
14;493
15;491
0;492
1;495
2;498
3;500
4;503
5;502
6;499
7;497
8;495
9;490
10;485
11;480
12;473
13;470
14;471
15;470
0;471
1;477
2;483
3;484
4;487
5;494
6;497
7;498
8;497
9;490
10;482
11;478
12;474
13;469
14;465
15;463
0;465
1;469
2;472
3;474
4;478
5;484
6;489
7;491
8;492
9;492
10;493
11;491
12;485
13;479
14;475
15;472
0;472
1;469
2;469
3;473
4;476
5;481
6;488
7;493
8;494
9;495
10;493
11;486
12;480
13;474
14;468
15;464
0;463
1;465
2;466
3;473
4;481
5;491
6;498
7;504
8;503
9;502
10;502
11;501
12;496
13;491
14;486
15;482
0;481
1;479
2;479
3;482
4;487
5;494
6;501
7;513
8;523
9;527
10;531
11;530
12;529
13;528
14;527
15;529
0;534
1;543
2;555
3;568
4;585
5;608
6;633
7;664
8;697
9;724
10;744
11;766
12;783
13;790
14;797
15;807
0;813
1;816
2;818
3;814
4;804
5;788
6;765
7;737
8;710
9;683
10;654
11;618
12;583
13;547
14;511
15;477
0;443
1;413
2;393
3;381
4;373
5;369
6;373
7;379
8;384
9;392
10;399
11;405
12;410
13;412
14;413
15;413
0;413
1;411
2;409
3;412
4;417
5;421
6;428
7;436
8;445
9;453
10;464
11;475
12;479
13;483
14;484
15;483
0;480
1;476
2;472
3;474
4;476
5;480
6;483
7;492
8;500
9;508
10;516
11;520
12;523
13;524
14;523
15;519
0;515
1;513
2;511
3;507
4;505
5;504
6;502
7;504
8;510
9;518
10;524
11;531
12;537
13;539
14;539
15;534
0;531
1;531
2;532
3;530
4;525
5;521
6;521
7;520
8;520
9;523
10;529
11;534
12;539
13;541
14;540
15;538
0;532
1;522
2;518
3;515
4;512
5;506
6;505
7;503
8;503
9;508
10;516
11;527
12;539
13;545
14;546
15;544
0;540
1;536
2;529
3;524
4;517
5;511
6;507
7;506
8;506
9;509
10;514
11;520
12;525
13;531
14;537
15;539
0;537
1;535
2;531
3;527
4;522
5;516
6;512
7;509
8;507
9;506
10;509
11;512
12;513
13;518
14;528
15;536
0;538
1;538
2;537
3;532
4;526
5;520
6;512
7;508
8;507
9;507
10;505
11;509
12;512
13;517
14;526
15;534
0;540
1;540
2;536
3;534
4;529
5;525
6;525
7;524
8;524
9;525
10;524
11;524
12;527
13;534
14;542
15;549
0;554
1;556
2;559
3;558
4;552
5;546
6;540
7;535
8;531
9;530
10;531
11;535
12;543
13;552
14;557
15;561
0;564
1;563
2;560
3;557
4;551
5;545
6;541
7;536
8;530
9;528
10;530
11;532
12;535
13;543
14;550
15;553
0;558
1;560
2;561
3;563
4;562
5;556
6;551
7;545
8;537
9;530
10;526
11;524
12;523
13;520
14;524
15;529
0;534
1;540
2;546
3;545
4;544
5;542
6;535
7;525
8;517
9;509
10;506
11;506
12;503
13;500
14;502
15;502
0;503
1;508
2;515
3;519
4;515
5;507
6;500
7;491
8;483
9;477
10;475
11;475
12;472
13;467
14;463
15;463
0;466
1;472
2;478
3;482
4;484
5;483
6;482
7;477
8;465
9;457
10;451
11;444
12;441
13;440
14;438
15;438
0;443
1;449
2;457
3;465
4;472
5;472
6;468
7;465
8;457
9;449
10;445
11;440
12;434
13;432
14;435
15;437
0;438
1;440
2;444
3;451
4;457
5;460
6;462
7;465
8;466
9;463
10;460
11;456
12;454
13;451
14;447
15;441
0;436
1;437
2;439
3;442
4;447
5;458
6;467
7;469
8;470
9;468
10;460
11;453
12;446
13;436
14;431
15;430
0;428
1;429
2;435
3;446
4;455
5;464
6;471
7;472
8;473
9;472
10;465
11;459
12;454
13;447
14;441
15;440
0;439
1;441
2;449
3;460
4;467
5;474
6;478
7;481
8;480
9;480
10;477
11;475
12;472
13;466
14;457
15;450
0;450
1;451
2;451
3;455
4;463
5;470
6;480
7;488
8;492
9;493
10;492
11;488
12;484
13;478
14;469
15;463
0;462
1;463
2;468
3;474
4;480
5;487
6;494
7;503
8;508
9;504
10;500
11;496
12;491
13;487
14;483
15;480
0;479
1;482
2;485
3;486
4;491
5;495
6;499
7;505
8;509
9;510
10;511
11;508
12;500
13;494
14;488
15;477
0;470
1;467
2;468
3;472
4;477
5;485
6;494
7;501
8;507
9;511
10;513
11;515
12;518
13;515
14;508
15;501
0;495
1;489
2;486
3;484
4;484
5;486
6;491
7;499
8;509
9;519
10;524
11;523
12;523
13;521
14;515
15;509
0;507
1;504
2;500
3;501
4;500
5;499
6;502
7;507
8;511
9;517
10;521
11;520
12;519
13;516
14;512
15;505
0;502
1;498
2;494
3;492
4;491
5;488
6;487
7;494
8;501
9;506
10;512
11;516
12;516
13;515
14;515
15;513
0;506
1;500
2;493
3;488
4;488
5;491
6;494
7;504
8;514
9;517
10;520
11;526
12;531
13;531
14;530
15;524
0;515
1;509
2;503
3;498
4;494
5;499
6;501
7;500
8;502
9;505
10;511
11;518
12;523
13;529
14;535
15;536
0;532
1;528
