0;534
1;534
2;538
3;541
4;537
5;533
6;530
7;530
8;533
9;534
10;535
11;537
12;532
13;526
14;530
15;532
0;533
1;542
2;542
3;541
4;541
5;546
6;551
7;553
8;550
9;549
10;551
11;555
12;554
13;554
14;554
15;548
0;546
1;547
2;548
3;557
4;568
5;574
6;574
7;574
8;575
9;572
10;572
11;571
12;571
13;569
14;564
15;559
0;558
1;559
2;556
3;561
4;563
5;564
6;564
7;567
8;566
9;563
10;561
11;558
12;556
13;555
14;555
15;556
0;556
1;553
2;551
3;548
4;549
5;550
6;549
7;548
8;545
9;541
10;535
11;528
12;517
13;511
14;519
15;524
0;532
1;549
2;562
3;571
4;579
5;590
6;609
7;627
8;636
9;639
10;645
11;654
12;656
13;650
14;643
15;637
0;628
1;623
2;617
3;612
4;612
5;615
6;618
7;618
8;619
9;615
10;606
11;597
12;587
13;574
14;563
15;556
0;552
1;549
2;548
3;546
4;548
5;548
6;547
7;546
8;547
9;545
10;541
11;538
12;535
13;532
14;530
15;528
0;528
1;530
2;532
3;535
4;536
5;537
6;540
7;543
8;538
9;536
10;539
11;544
12;548
13;550
14;551
15;552
0;555
1;553
2;553
3;552
4;553
5;553
6;548
7;543
8;540
9;539
10;536
11;538
12;542
13;541
14;536
15;530
0;526
1;529
2;532
3;527
4;519
5;514
6;511
7;510
8;516
9;524
10;527
11;527
12;525
13;524
14;521
15;516
0;511
1;506
2;499
3;495
4;494
5;493
6;490
7;490
8;491
9;490
10;489
11;487
12;487
13;489
14;492
15;497
0;499
1;497
2;491
3;488
4;484
5;477
6;471
7;467
8;467
9;469
10;471
11;469
12;464
13;458
14;460
15;454
0;446
1;442
2;436
3;434
4;440
5;456
6;470
7;476
8;473
9;470
10;472
11;474
12;479
13;478
14;476
15;472
0;468
1;464
2;462
3;462
4;458
5;455
6;456
7;457
8;463
9;467
10;468
11;469
12;467
13;465
14;464
15;463
0;461
1;464
2;465
3;465
4;467
5;466
6;464
7;462
8;462
9;463
10;465
11;467
12;468
13;471
14;474
15;474
0;475
1;478
2;476
3;474
4;472
5;465
6;460
7;456
8;460
9;463
10;463
11;466
12;469
13;468
14;464
15;463
0;465
1;465
2;465
3;463
4;457
5;454
6;451
7;451
8;451
9;451
10;451
11;448
12;443
13;439
14;435
15;432
0;437
1;445
2;447
3;451
4;455
5;449
6;450
7;453
8;453
9;456
10;462
11;463
12;461
13;461
14;461
15;461
0;460
1;461
2;462
3;460
4;455
5;455
6;455
7;457
8;458
9;460
10;463
11;464
12;464
13;466
14;469
15;474
0;478
1;480
2;480
3;481
4;482
5;481
6;480
7;481
8;483
9;481
10;480
11;480
12;483
13;482
14;481
15;484
0;484
1;486
2;491
3;496
4;499
5;499
6;496
7;494
8;495
9;497
10;494
11;492
12;492
13;490
14;487
15;483
0;485
1;489
2;490
3;490
4;490
5;490
6;490
7;487
8;482
9;479
10;476
11;480
12;487
13;497
14;504
15;502
0;496
1;494
2;496
3;499
4;498
5;498
6;500
7;499
8;497
9;495
10;494
11;495
12;495
13;494
14;494
15;493
0;493
1;494
2;496
3;496
4;495
5;492
6;489
7;489
8;494
9;498
10;499
11;499
12;498
13;497
14;495
15;492
0;487
1;484
2;484
3;482
4;480
5;480
6;479
7;478
8;475
9;472
10;472
11;473
12;472
13;472
14;470
15;469
0;467
1;468
2;470
3;478
4;486
5;487
6;487
7;486
8;487
9;490
10;492
11;495
12;495
13;492
14;491
15;490
0;489
1;489
2;491
3;492
4;503
5;517
6;522
7;528
8;540
9;542
10;543
11;544
12;542
13;543
14;542
15;544
0;546
1;544
2;542
3;540
4;541
5;546
6;556
7;568
8;572
9;573
10;574
11;571
12;566
13;561
14;558
15;557
0;558
1;558
2;558
3;556
4;555
5;555
6;555
7;554
8;551
9;548
10;546
11;545
12;552
13;557
14;557
15;558
0;556
1;550
2;544
3;544
4;544
5;550
6;556
7;559
8;563
9;562
10;561
11;559
12;556
13;554
14;552
15;549
0;542
1;539
2;543
3;548
4;551
5;553
6;558
7;560
8;558
9;557
10;553
11;548
12;547
13;549
14;551
15;548
0;542
1;540
2;540
3;545
4;552
5;552
6;550
7;549
8;549
9;547
10;546
11;546
12;549
13;551
14;550
15;547
0;545
1;542
2;539
3;539
4;542
5;546
6;549
7;547
8;543
9;544
10;544
11;543
12;540
13;536
14;527
15;521
0;516
1;513
2;512
3;515
4;524
5;531
6;543
7;549
8;551
9;552
10;548
11;543
12;539
13;537
14;537
15;534
0;531
1;534
2;538
3;541
4;542
5;542
6;542
7;541
8;542
9;545
10;544
11;543
12;542
13;541
14;541
15;542
0;540
1;539
2;539
3;539
4;539
5;538
6;538
7;539
8;537
9;539
10;540
11;539
12;538
13;536
14;534
15;535
0;534
1;535
2;534
3;533
4;533
5;532
6;532
7;532
8;535
9;536
10;537
11;542
12;545
13;543
14;540
15;541
0;544
1;549
2;553
3;557
4;559
5;557
6;554
7;550
8;544
9;540
10;537
11;536
12;536
13;535
14;532
15;534
0;533
1;527
2;517
3;514
4;508
5;515
6;532
7;553
8;569
9;577
10;580
11;579
12;576
13;571
14;568
15;563
0;557
1;552
2;545
3;541
4;536
5;532
6;529
7;529
8;528
9;527
10;526
11;527
12;529
13;531
14;531
15;530
0;529
1;529
2;528
3;526
4;523
5;524
6;526
7;524
8;520
9;522
10;519
11;514
12;513
13;514
14;517
15;519
0;519
1;519
2;515
3;511
4;508
5;506
6;509
7;513
8;517
9;519
10;523
11;524
12;524
13;526
14;529
15;528
0;526
1;521
2;519
3;520
4;519
5;512
6;503
7;503
8;510
9;513
10;518
11;524
12;531
13;538
14;540
15;540
0;544
1;545
2;540
3;537
4;536
5;532
6;527
7;520
8;518
9;522
10;523
11;525
12;526
13;528
14;531
15;536
0;539
1;541
2;540
3;537
4;537
5;534
6;531
7;527
8;527
9;527
10;527
11;526
12;525
13;525
14;524
15;522
0;522
1;520
2;518
3;516
4;512
5;512
6;510
7;505
8;500
9;496
10;490
11;487
12;489
13;493
14;497
15;501
0;504
1;508
2;515
3;521
4;528
5;534
6;546
7;563
8;575
9;583
10;593
11;607
12;614
13;609
14;603
15;601
0;599
1;600
2;598
3;596
4;597
5;599
6;602
7;603
8;603
9;595
10;588
11;578
12;569
13;563
14;558
15;550
0;541
1;532
2;529
3;530
4;529
5;526
6;518
7;511
8;506
9;499
10;495
11;491
12;487
13;488
14;493
15;494
0;496
1;504
2;511
3;515
4;518
5;519
6;517
7;520
8;523
9;526
10;526
11;523
12;519
13;516
14;515
15;513
0;512
1;512
2;513
3;514
4;512
5;509
6;507
7;505
8;506
9;505
10;502
11;500
12;498
13;494
14;490
15;487
0;487
1;493
2;498
3;505
4;512
5;515
6;516
7;514
8;514
9;514
10;514
11;514
12;512
13;509
14;504
15;499
0;496
1;494
2;492
3;494
4;497
5;503
6;505
7;503
8;500
9;499
10;496
11;497
12;499
13;501
14;501
15;506
0;508
1;506
2;508
3;508
4;502
5;504
6;509
7;511
8;510
9;508
10;509
11;507
12;503
13;500
14;500
15;499
0;494
1;488
2;486
3;490
4;493
5;496
6;497
7;494
8;492
9;493
10;494
11;497
12;500
13;502
14;502
15;499
0;494
1;492
2;489
3;487
4;490
5;495
6;499
7;502
8;502
9;500
10;495
11;490
12;487
13;483
14;480
15;477
0;476
1;477
2;478
3;480
4;483
5;484
6;486
7;488
8;490
9;490
10;488
11;488
12;488
13;486
14;483
15;475
0;468
1;476
2;481
3;479
4;476
5;478
6;474
7;473
8;476
9;487
10;492
11;496
12;497
13;496
14;496
15;496
0;492
1;488
2;487
3;491
4;495
5;493
6;490
7;491
8;495
9;499
10;501
11;503
12;497
13;489
14;488
15;491
0;492
1;491
2;494
3;494
4;489
5;481
6;479
7;489
8;500
9;504
10;502
11;504
12;506
13;507
14;508
15;507
0;506
1;503
2;500
3;499
4;499
5;499
6;503
7;504
8;504
9;507
10;509
11;510
12;507
13;505
14;508
15;511
0;511
1;508
2;504
3;503
4;503
5;503
6;502
7;502
8;503
9;504
10;503
11;503
12;503
13;502
14;502
15;503
0;506
1;506
2;504
3;505
4;507
5;507
6;508
7;510
8;514
9;512
10;512
11;514
12;518
13;520
14;525
15;527
0;528
1;529
2;529
3;530
4;529
5;526
6;526
7;528
8;527
9;526
10;525
11;521
12;519
13;517
14;512
15;508
0;506
1;503
2;504
3;507
4;509
5;509
6;508
7;512
8;514
9;515
10;516
11;518
12;519
13;521
14;522
15;524
0;525
1;525
2;524
3;524
4;521
5;515
6;512
7;511
8;512
9;513
10;516
11;520
12;523
13;527
14;528
15;524
0;523
1;521
2;522
3;529
4;538
5;542
6;540
7;537
8;536
9;537
10;539
11;539
12;536
13;533
14;532
15;533
0;535
1;532
2;534
3;534
4;532
5;531
6;529
7;528
8;527
9;528
10;528
11;530
12;533
13;535
14;537
15;540
0;541
1;540
2;542
3;542
4;543
5;540
6;536
7;534
8;532
9;531
10;527
11;524
12;523
13;524
14;524
15;527
0;529
1;533
2;535
3;535
4;534
5;533
6;532
7;532
8;531
9;532
10;531
11;531
12;529
13;526
14;529
15;531
0;531
1;533
2;534
3;530
4;530
5;531
6;529
7;527
8;524
9;524
10;523
11;516
12;515
13;516
14;523
15;526
0;528
1;527
2;529
3;533
4;532
5;532
6;532
7;527
8;522
9;526
10;530
11;531
12;527
13;520
14;515
15;511
0;509
1;508
2;507
3;508
4;505
5;504
6;505
7;507
8;505
9;501
10;499
11;498
12;497
13;496
14;496
15;499
0;503
1;504
2;506
3;508
4;508
5;505
6;505
7;504
8;503
9;504
10;505
11;502
12;499
13;498
14;498
15;498
0;500
1;505
2;506
3;507
4;509
5;509
6;511
7;512
8;514
9;517
10;518
11;515
12;510
13;508
14;505
15;503
0;503
1;504
2;503
3;503
4;503
5;504
6;505
7;499
8;495
9;499
10;505
11;520
12;525
13;521
14;518
15;518
0;521
1;526
2;528
3;528
4;531
5;534
6;534
7;532
8;529
9;523
10;519
11;519
12;516
13;515
14;515
15;517
0;517
1;515
2;513
3;514
4;513
5;511
6;510
7;510
8;508
9;507
10;508
11;507
12;510
13;516
14;523
15;525
0;526
1;528
2;531
3;531
4;531
5;531
6;532
7;533
8;532
9;531
10;530
11;531
12;528
13;525
14;524
15;522
0;522
1;522
2;522
3;519
4;518
5;519
6;518
7;513
8;511
9;510
10;509
11;508
12;507
13;507
14;506
15;504
0;507
1;509
2;510
3;511
4;511
5;511
6;510
7;507
8;504
9;501
10;502
11;504
12;500
13;494
14;487
15;479
0;473
1;468
2;469
3;471
4;476
5;489
6;498
7;495
8;492
9;494
10;496
11;497
12;497
13;494
14;489
15;485
0;481
1;481
2;483
3;483
4;483
5;483
6;483
7;483
8;484
9;486
10;490
11;491
12;491
13;491
14;489
15;487
0;485
1;483
2;482
3;482
4;482
5;481
6;483
7;484
8;485
9;486
10;487
11;487
12;487
13;487
14;487
15;488
0;488
1;488
2;489
3;491
4;489
5;488
6;488
7;489
8;491
9;496
10;498
11;498
12;497
13;498
14;496
15;491
0;488
1;488
2;486
3;482
4;484
5;486
6;488
7;489
8;490
9;489
10;486
11;483
12;482
13;482
14;481
15;483
0;484
1;481
2;479
3;474
4;472
5;467
6;465
7;463
8;465
9;469
10;483
11;500
12;516
13;531
14;536
15;541
0;550
1;564
2;586
3;609
4;633
5;641
6;635
7;626
8;618
9;609
10;606
11;601
12;599
13;594
14;588
15;580
0;574
1;568
2;558
3;550
4;543
5;533
6;524
7;517
8;511
9;504
10;499
11;496
12;495
13;496
14;497
15;497
0;497
1;496
2;495
3;493
4;491
5;489
6;486
7;481
8;478
9;477
10;479
11;481
12;482
13;483
14;484
15;487
0;491
1;494
2;497
3;498
4;497
5;496
6;493
7;490
8;491
9;489
10;487
11;490
12;492
13;490
14;490
15;493
0;496
1;495
2;494
3;493
4;493
5;497
6;500
7;503
8;505
9;504
10;503
11;502
12;500
13;500
14;499
15;500
0;501
1;500
2;500
3;502
4;502
5;500
6;499
7;497
8;493
9;488
10;487
11;494
12;500
13;506
14;508
15;510
0;511
1;512
2;513
3;514
4;510
5;508
6;507
7;508
8;508
9;507
10;504
11;504
12;503
13;503
14;504
15;504
0;504
1;505
2;504
3;502
4;499
5;496
6;494
7;494
8;496
9;496
10;496
11;496
12;495
13;496
14;497
15;498
0;497
1;499
2;501
3;502
4;498
5;500
6;499
7;501
8;502
9;504
10;503
11;504
12;507
13;511
14;515
15;517
0;514
1;507
2;503
3;503
4;509
5;512
6;508
7;505
8;505
9;500
10;497
11;499
12;503
13;504
14;505
15;508
0;508
1;505
2;503
3;502
4;502
5;504
6;505
7;507
8;506
9;503
10;501
11;502
12;501
13;501
14;504
15;508
0;509
1;509
2;507
3;505
4;506
5;506
6;507
7;507
8;504
9;502
10;500
11;499
12;496
13;496
14;497
15;499
0;500
1;499
2;501
3;505
4;505
5;500
6;499
7;502
8;504
9;503
10;499
11;500
12;500
13;500
14;504
15;508
0;511
1;512
2;512
3;509
4;510
5;511
6;508
7;508
8;509
9;508
10;503
11;504
12;510
13;509
14;507
15;506
0;506
1;508
2;508
3;505
4;500
5;499
6;502
7;504
8;505
9;504
10;505
11;509
12;511
13;512
14;514
15;516
0;519
1;518
2;516
3;514
4;513
5;513
6;513
7;514
8;515
9;515
10;515
11;512
12;509
13;504
14;499
15;505
0;512
1;513
2;516
3;521
4;523
5;525
6;528
7;525
8;522
9;520
10;519
11;515
12;511
13;505
14;502
15;501
0;504
1;507
2;510
3;513
4;514
5;514
6;519
7;522
8;521
9;519
10;524
11;529
12;533
13;538
14;538
15;536
0;532
1;533
2;536
3;535
4;532
5;528
6;526
7;527
8;528
9;531
10;532
11;530
12;525
13;518
14;515
15;514
0;514
1;519
2;523
3;522
4;518
5;513
6;511
7;512
8;516
9;517
10;517
11;519
12;523
13;522
14;521
15;521
0;520
1;517
2;514
3;514
4;517
5;517
6;515
7;513
8;512
9;510
10;507
11;504
12;505
13;505
14;503
15;503
0;504
1;505
2;504
3;501
4;500
5;502
6;504
7;504
8;503
9;502
10;503
11;502
12;501
13;501
14;500
15;498
0;498
1;498
2;496
3;495
4;496
5;497
6;492
7;487
8;487
9;496
10;496
11;492
12;490
13;493
14;500
15;508
0;512
1;512
2;509
3;507
4;505
5;503
6;500
7;498
8;499
9;499
10;499
11;500
12;499
13;499
14;502
15;503
0;502
1;500
2;498
3;498
4;497
5;496
6;497
7;497
8;498
9;502
10;504
11;505
12;508
13;507
14;505
15;506
0;506
1;502
2;499
3;497
4;493
5;491
6;489
7;488
8;486
9;486
10;487
11;489
12;492
13;493
14;491
15;491
0;493
1;493
2;492
3;489
4;485
5;483
6;486
7;486
8;486
9;491
10;496
11;499
12;499
13;501
14;502
15;503
0;503
1;502
2;503
3;502
4;502
5;498
6;496
7;497
8;497
9;494
10;491
11;492
12;489
13;494
14;504
15;514
0;517
1;515
2;511
3;506
4;502
5;499
6;496
7;493
8;494
9;493
10;492
11;491
12;493
13;494
14;494
15;493
0;491
1;491
2;490
3;488
4;489
5;491
6;491
7;490
8;489
9;489
10;488
11;490
12;488
13;484
14;482
15;484
0;486
1;486
2;486
3;485
4;483
5;482
6;480
7;480
8;479
9;479
10;480
11;483
12;485
13;490
14;495
15;497
0;496
1;493
2;496
3;498
4;496
5;491
6;488
7;487
8;487
9;487
10;487
11;488
12;487
13;484
14;485
15;488
0;491
1;495
2;495
3;496
4;495
5;496
6;498
7;499
8;501
9;503
10;505
11;507
12;510
13;512
14;514
15;516
0;516
1;520
2;520
3;518
4;515
5;512
6;510
7;504
8;501
9;504
10;507
11;507
12;508
13;505
14;506
15;509
0;511
1;513
2;511
3;509
4;505
5;500
6;497
7;495
8;497
9;493
10;487
11;489
12;493
13;497
14;499
15;505
0;514
1;517
2;516
3;515
4;513
5;512
6;508
7;503
8;500
9;498
10;494
11;492
12;487
13;483
14;478
15;473
0;468
1;465
2;467
3;471
4;475
5;477
6;479
7;481
8;483
9;483
10;483
11;482
12;480
13;480
14;480
15;479
0;480
1;480
2;479
3;480
4;482
5;484
6;485
7;485
8;483
9;483
10;484
11;484
12;486
13;488
14;489
15;490
0;491
1;492
2;493
3;497
4;500
5;502
6;501
7;499
8;497
9;494
10;491
11;489
12;487
13;487
14;487
15;486
0;487
1;489
2;494
3;499
4;502
5;504
6;506
7;505
8;505
9;506
10;505
11;505
12;503
13;501
14;496
15;492
0;491
1;492
2;494
3;493
4;488
5;492
6;496
7;500
8;501
9;499
10;496
11;490
12;486
13;483
14;484
15;487
0;489
1;487
2;484
3;486
4;481
5;479
6;480
7;482
8;490
9;498
10;507
11;518
12;531
13;541
14;553
15;567
0;578
1;587
2;600
3;615
4;624
5;622
6;615
7;609
8;604
9;602
10;597
11;589
12;582
13;577
14;573
15;569
0;565
1;561
2;556
3;549
4;544
5;539
6;531
7;524
8;515
9;510
10;507
11;505
12;503
13;502
14;499
15;496
0;494
1;491
2;491
3;491
4;491
5;492
6;493
7;494
8;495
9;497
10;499
11;502
12;501
13;499
14;498
15;501
0;503
1;503
2;506
3;505
4;506
5;508
6;508
7;505
8;507
9;509
10;510
11;510
12;510
13;507
14;502
15;500
0;499
1;500
2;502
3;503
4;505
5;505
6;508
7;510
8;513
9;517
10;523
11;530
12;532
13;530
14;528
15;524
0;523
1;527
2;531
3;536
4;536
5;535
6;534
7;534
8;534
9;536
10;537
11;540
12;539
13;539
14;539
15;538
0;540
1;543
2;545
3;548
4;549
5;550
6;550
7;554
8;557
9;557
10;559
11;559
12;559
13;558
14;558
15;561
0;560
1;558
2;557
3;555
4;551
5;551
6;550
7;549
8;553
9;556
10;557
11;558
12;558
13;560
14;562
15;562
0;562
1;561
2;563
3;567
4;568
5;566
6;563
7;562
8;561
9;559
10;558
11;560
12;562
13;563
14;563
15;566
0;568
1;568
2;566
3;565
4;563
5;557
6;549
7;551
8;553
9;555
10;559
11;563
12;569
13;572
14;575
15;579
0;579
1;579
2;581
3;583
4;579
5;576
6;573
7;570
8;568
9;564
10;564
11;566
12;566
13;564
14;563
15;562
0;566
1;576
2;582
3;581
4;579
5;580
6;580
7;581
8;580
9;576
10;574
11;572
12;571
13;569
14;568
15;566
0;565
1;564
2;566
3;568
4;569
5;568
6;566
7;563
8;559
9;555
10;554
11;557
12;558
13;558
14;557
15;558
0;560
1;562
2;563
3;566
4;567
5;565
6;563
7;565
8;567
9;567
10;567
11;568
12;569
13;569
14;569
15;568
0;565
1;566
2;566
3;562
4;556
5;551
6;553
7;552
8;545
9;542
10;543
11;543
12;551
13;565
14;574
15;575
0;576
1;577
2;577
3;575
4;570
5;566
6;563
7;562
8;563
9;562
10;561
11;558
12;554
13;551
14;550
15;553
0;557
1;559
2;560
3;558
4;556
5;553
6;551
7;549
8;548
9;549
10;547
11;547
12;548
13;547
14;544
15;545
0;551
1;555
2;555
3;555
4;552
5;555
6;554
7;549
8;546
9;543
10;541
11;539
12;540
13;542
14;546
15;549
0;549
1;545
2;540
3;540
4;540
5;545
6;548
7;551
8;558
9;563
10;566
11;564
12;559
13;552
14;549
15;547
0;544
1;544
2;544
3;543
4;543
5;543
6;543
7;539
8;536
9;536
10;536
11;537
12;537
13;540
14;542
15;544
0;545
1;547
2;548
3;548
4;546
5;543
6;539
7;536
8;533
9;534
10;539
11;550
12;556
13;556
14;551
15;545
0;544
1;547
2;553
3;557
4;557
5;556
6;553
7;551
8;547
9;541
10;542
11;546
12;547
13;546
14;542
15;538
0;538
1;537
2;536
3;537
4;540
5;542
6;543
7;544
8;547
9;544
10;542
11;540
12;537
13;537
14;536
15;534
0;532
1;531
2;532
3;533
4;534
5;535
6;535
7;535
8;535
9;531
10;531
11;533
12;534
13;531
14;525
15;521
0;518
1;514
2;511
3;508
4;506
5;504
6;505
7;510
8;514
9;516
10;518
11;523
12;522
13;521
14;519
15;517
0;513
1;509
2;504
3;502
4;500
5;500
6;504
7;510
8;516
9;521
10;519
11;516
12;513
13;510
14;504
15;499
0;495
1;492
2;486
3;483
4;482
5;486
6;490
7;494
8;498
9;498
10;496
11;492
12;493
13;495
14;497
15;496
0;495
1;494
2;493
3;493
4;495
5;495
6;493
7;495
8;498
9;499
10;498
11;497
12;498
13;494
14;489
15;487
0;490
1;493
2;494
3;494
4;492
5;490
6;488
7;493
8;495
9;494
10;496
11;499
12;502
13;504
14;505
15;503
0;500
1;497
2;496
3;491
4;491
5;492
6;502
7;507
8;510
9;512
10;512
11;511
12;512
13;513
14;512
15;509
0;508
1;507
2;506
3;505
4;502
5;502
6;503
7;507
8;508
9;508
10;510
11;513
12;513
13;513
14;514
15;516
0;519
1;520
2;520
3;518
4;518
5;517
6;515
7;515
8;513
9;512
10;511
11;507
12;506
13;506
14;510
15;522
0;539
1;545
2;545
3;542
4;536
5;533
6;528
7;524
8;520
9;514
10;513
11;518
12;519
13;519
14;520
15;520
0;521
1;521
2;521
3;521
4;523
5;524
6;524
7;526
8;525
9;528
10;529
11;529
12;530
13;529
14;529
15;526
0;519
1;516
2;512
3;510
4;509
5;509
6;511
7;510
8;509
9;507
10;504
11;505
12;506
13;507
14;508
15;508
0;507
1;505
2;504
3;503
4;501
5;497
6;494
7;494
8;492
9;490
10;491
11;494
12;496
13;493
14;488
15;490
0;489
1;488
2;491
3;494
4;494
5;489
6;483
7;480
8;478
9;477
10;475
11;473
12;476
13;474
14;472
15;474
0;474
1;477
2;478
3;480
4;485
5;489
6;489
7;486
8;484
9;480
10;477
11;473
12;471
13;471
14;473
15;476
0;475
1;470
2;468
3;469
4;471
5;475
6;476
7;475
8;474
9;472
10;471
11;472
12;473
13;475
14;476
15;475
0;473
1;475
2;476
3;474
4;472
5;471
6;471
7;470
8;471
9;472
10;470
11;468
12;470
13;471
14;470
15;468
0;469
1;468
2;465
3;463
4;463
5;470
6;471
7;468
8;471
9;479
10;484
11;485
12;484
13;485
14;483
15;486
0;483
1;477
2;472
3;468
4;466
5;464
6;463
7;466
8;469
9;471
10;468
11;468
12;466
13;465
14;465
15;463
0;460
1;457
2;454
3;453
4;452
5;454
6;460
7;468
8;478
9;486
10;494
11;504
12;514
13;526
14;539
15;547
0;560
1;571
2;581
3;585
4;580
5;573
6;565
7;558
8;553
9;548
10;549
11;553
12;555
13;553
14;550
15;547
0;542
1;537
2;530
3;523
4;515
5;503
6;497
7;497
8;495
9;491
10;487
11;481
12;477
13;475
14;471
15;467
0;465
1;462
2;460
3;464
4;468
5;471
6;472
7;473
8;476
9;478
10;480
11;479
12;480
13;482
14;485
15;488
0;488
1;486
2;485
3;486
4;488
5;491
6;492
7;493
8;492
9;492
10;491
11;488
12;488
13;489
14;492
15;494
0;492
1;491
2;487
3;487
4;490
5;492
6;492
7;493
8;493
9;492
10;488
11;485
12;483
13;481
14;481
15;483
0;483
1;485
2;486
3;487
4;489
5;494
6;499
7;498
8;495
9;491
10;486
11;483
12;479
13;479
14;482
15;488
0;492
1;494
2;495
3;492
4;497
5;500
6;500
7;502
8;504
9;504
10;505
11;506
12;507
13;509
14;509
15;507
0;501
1;496
2;497
3;501
4;504
5;505
6;505
7;504
8;502
9;501
10;499
11;496
12;494
13;493
14;491
15;491
0;493
1;497
2;500
3;500
4;499
5;497
6;496
7;494
8;489
9;486
10;483
11;484
12;482
13;481
14;480
15;480
0;481
1;481
2;480
3;478
4;477
5;476
6;478
7;478
8;480
9;482
10;483
11;484
12;480
13;479
14;481
15;482
0;483
1;485
2;482
3;475
4;469
5;470
6;472
7;482
8;493
9;503
10;510
11;511
12;510
13;508
14;505
15;503
0;501
1;500
2;497
3;492
4;492
5;493
6;497
7;499
8;499
9;499
10;499
11;501
12;503
13;502
14;500
15;498
0;497
1;496
2;499
3;502
4;504
5;506
6;506
7;505
8;503
9;502
10;502
11;502
12;503
13;505
14;504
15;505
0;505
1;501
2;498
3;497
4;499
5;498
6;495
7;491
8;488
9;486
10;487
11;490
12;490
13;497
14;510
15;516
0;515
1;510
2;505
3;504
4;502
5;501
6;503
7;504
8;507
9;509
10;507
11;508
12;512
13;513
14;511
15;509
0;506
1;503
2;499
3;496
4;496
5;497
6;498
7;498
8;497
9;496
10;496
11;496
12;497
13;495
14;493
15;492
0;491
1;489
2;486
3;483
4;482
5;483
6;486
7;488
8;491
9;490
10;487
11;486
12;485
13;482
14;481
15;481
0;479
1;476
2;476
3;475
4;473
5;474
6;476
7;476
8;477
9;476
10;478
11;479
12;478
13;475
14;473
15;473
0;472
1;473
2;472
3;473
4;478
5;483
6;486
7;489
8;487
9;486
10;485
11;484
12;483
13;481
14;481
15;480
0;480
1;481
2;483
3;486
4;488
5;487
6;483
7;476
8;472
9;471
10;475
11;480
12;484
13;485
14;483
15;482
0;481
1;479
2;479
3;476
4;475
5;476
6;475
7;475
8;475
9;475
10;475
11;478
12;480
13;486
14;491
15;491
0;491
1;492
2;489
3;487
4;487
5;488
6;489
7;491
8;493
9;491
10;488
11;486
12;483
13;480
14;478
15;479
0;480
1;488
2;493
3;495
4;496
5;499
6;497
7;493
8;491
9;488
10;485
11;485
12;486
13;488
14;490
15;494
0;496
1;495
2;496
3;499
4;503
5;503
6;502
7;498
8;492
9;490
10;492
11;496
12;499
13;499
14;494
15;488
0;487
1;487
2;487
3;487
4;487
5;488
6;486
7;482
8;480
9;481
10;485
11;483
12;480
13;479
14;480
15;480
0;479
1;481
2;482
3;481
4;483
5;488
6;492
7;498
8;504
9;509
10;512
11;512
12;511
13;511
14;511
15;511
0;513
1;516
2;517
3;518
4;519
5;520
6;517
7;513
8;511
9;508
10;505
11;504
12;505
13;504
14;502
15;505
0;508
1;509
2;508
3;509
4;507
5;506
6;508
7;510
8;511
9;514
10;515
11;514
12;514
13;515
14;519
15;522
0;522
1;520
2;517
3;516
4;514
5;513
6;513
7;512
8;510
9;509
10;505
11;501
12;497
13;499
14;501
15;503
0;503
1;509
2;516
3;519
4;518
5;518
6;522
7;522
8;518
9;517
10;518
11;517
12;513
13;510
14;509
15;509
0;509
1;509
2;509
3;509
4;509
5;509
6;506
7;502
8;505
9;511
10;512
11;512
12;512
13;510
14;510
15;512
0;513
1;516
2;519
3;521
4;521
5;521
6;523
7;522
8;522
9;522
10;521
11;518
12;514
13;512
14;511
15;511
0;511
1;511
2;511
3;509
4;510
5;510
6;507
7;505
8;505
9;503
10;501
11;498
12;497
13;498
14;498
15;501
0;505
1;513
2;520
3;525
4;527
5;528
6;528
7;528
8;524
9;521
10;527
11;530
12;529
13;522
14;517
15;515
0;513
1;511
2;508
3;507
4;505
5;504
6;505
7;508
8;506
9;504
10;503
11;501
12;500
13;501
14;499
15;496
0;495
1;495
2;495
3;495
4;495
5;497
6;498
7;500
8;502
9;497
10;496
11;496
12;498
13;504
14;509
15;509
0;508
1;509
2;505
3;503
4;505
5;509
6;509
7;510
8;509
9;507
10;504
11;503
12;501
13;499
14;496
15;494
0;493
1;490
2;489
3;490
4;495
5;499
6;499
7;498
8;500
9;499
10;495
11;492
12;493
13;487
14;479
15;475
0;474
1;477
2;482
3;490
4;500
5;500
6;496
7;493
8;495
9;498
10;500
11;500
12;498
13;496
14;495
15;496
0;496
1;495
2;493
3;492
4;492
5;492
6;496
7;497
8;498
9;499
10;501
11;501
12;499
13;498
14;497
15;496
0;496
1;495
2;497
3;499
4;497
5;497
6;497
7;496
8;494
9;494
10;492
11;493
12;493
13;493
14;491
15;487
0;483
1;476
2;470
3;467
4;471
5;477
6;481
7;482
8;480
9;474
10;470
11;468
12;470
13;473
14;481
15;493
0;504
1;516
2;527
3;536
4;544
5;552
6;558
7;563
8;573
9;581
10;585
11;583
12;577
13;569
14;568
15;569
0;566
1;565
2;568
3;572
4;568
5;561
6;555
7;549
8;544
9;538
10;533
11;533
12;531
13;521
14;513
15;512
0;509
1;505
2;503
3;504
4;505
5;504
6;503
7;501
8;499
9;493
10;487
11;485
12;485
13;486
14;487
15;490
0;492
1;492
2;490
3;489
4;489
5;487
6;487
7;491
8;494
9;496
10;498
11;498
12;497
13;497
14;499
15;503
0;506
1;508
2;505
3;504
4;504
5;504
6;504
7;503
8;501
9;498
10;499
11;503
12;506
13;509
14;514
15;518
0;520
1;519
2;516
3;510
4;507
5;505
6;504
7;506
8;507
9;504
10;503
11;505
12;507
13;507
14;508
15;512
0;511
1;509
2;506
3;502
4;503
5;504
6;504
7;506
8;508
9;504
10;498
11;497
12;499
13;502
14;500
15;500
0;494
1;490
2;495
3;499
4;497
5;494
6;497
7;496
8;497
9;498
10;502
11;505
12;505
13;503
14;499
15;496
0;495
1;494
2;495
3;497
4;498
5;497
6;497
7;498
8;497
9;495
10;494
11;497
12;498
13;498
14;499
15;499
0;499
1;498
2;499
3;500
4;501
5;500
6;501
7;501
8;502
9;501
10;502
11;502
12;499
13;499
14;500
15;502
0;502
1;502
2;501
3;501
4;501
5;502
6;504
7;504
8;505
9;506
10;507
11;504
12;502
13;500
14;501
15;500
0;499
1;499
2;497
3;498
4;498
5;496
6;498
7;501
8;501
9;502
10;503
11;499
12;500
13;504
14;505
15;505
0;507
1;509
2;511
3;509
4;508
5;507
6;507
7;509
8;510
9;508
10;508
11;508
12;509
13;508
14;507
15;508
0;512
1;514
2;514
3;514
4;514
5;514
6;515
7;512
8;509
9;508
10;511
11;517
12;519
13;519
14;520
15;519
0;528
1;538
2;540
3;541
4;539
5;536
6;542
7;548
8;550
9;549
10;544
11;541
12;537
13;532
14;528
15;527
0;527
1;523
2;520
3;521
4;522
5;524
6;525
7;526
8;523
9;517
10;515
11;520
12;525
13;525
14;523
15;523
0;522
1;520
2;522
3;524
4;525
5;525
6;523
7;518
8;513
9;512
10;513
11;513
12;515
13;515
14;513
15;513
0;515
1;516
2;515
3;515
4;517
5;518
6;523
7;527
8;531
9;532
10;530
11;530
12;529
13;528
14;525
15;523
0;523
1;524
2;524
3;526
4;525
5;527
6;528
7;528
8;522
9;520
10;520
11;517
12;513
13;511
14;511
15;513
0;515
1;516
2;516
3;515
4;514
5;515
6;520
7;522
8;523
9;526
10;526
11;523
12;519
13;519
14;518
15;515
0;511
1;512
2;511
3;508
4;510
5;513
6;516
7;518
8;519
9;518
10;515
11;512
12;513
13;512
14;510
15;505
0;502
1;502
2;505
3;509
4;510
5;512
6;513
7;517
8;517
9;515
10;517
11;512
12;509
13;513
14;511
15;519
0;525
1;524
2;527
3;526
4;523
5;520
6;519
7;513
8;512
9;512
10;511
11;513
12;514
13;515
14;514
15;511
0;509
1;508
2;507
3;507
4;507
5;507
6;505
7;504
8;504
9;503
10;503
11;502
12;499
13;498
14;498
15;497
0;493
1;487
2;482
3;481
4;484
5;490
6;498
7;504
8;506
9;506
10;506
11;506
12;507
13;509
14;510
15;508
0;506
1;504
2;505
3;506
4;503
5;504
6;499
7;495
8;495
9;493
10;493
11;495
12;498
13;502
14;505
15;507
0;507
1;506
2;503
3;500
4;499
5;500
6;500
7;500
8;502
9;502
10;504
11;504
12;502
13;500
14;500
15;502
0;504
1;503
2;501
3;499
4;498
5;498
6;494
7;489
8;489
9;491
10;492
11;492
12;492
13;495
14;496
15;495
0;495
1;495
2;495
3;496
4;497
5;497
6;494
7;491
8;487
9;485
10;485
11;479
12;476
13;478
14;480
15;480
0;480
1;479
2;476
3;473
4;476
5;480
6;478
7;477
8;475
9;474
10;478
11;487
12;493
13;496
14;501
15;504
0;506
1;507
2;505
3;500
4;498
5;497
6;496
7;494
8;494
9;496
10;500
11;499
12;497
13;496
14;493
15;493
0;493
1;493
2;493
3;494
4;494
5;494
6;492
7;489
8;491
9;491
10;493
11;499
12;505
13;510
14;514
15;519
0;519
1;517
2;515
3;515
4;518
5;521
6;524
7;523
8;524
9;522
10;517
11;515
12;514
13;515
14;517
15;520
0;521
1;521
2;523
3;524
4;525
5;530
6;532
7;530
8;525
9;520
10;524
11;526
12;522
13;516
14;517
15;527
0;542
1;552
2;558
3;560
4;559
5;554
6;548
7;542
8;538
9;536
10;546
11;554
12;548
13;538
14;539
15;547
0;553
1;556
2;555
3;552
4;555
5;557
6;552
7;546
8;540
9;539
10;539
11;537
12;536
13;537
14;540
15;541
0;541
1;540
2;538
3;537
4;538
5;539
6;543
7;548
8;548
9;546
10;543
11;542
12;545
13;546
14;545
15;544
0;544
1;543
2;544
3;542
4;538
5;537
6;536
7;536
8;536
9;537
10;540
11;544
12;543
13;543
14;540
15;539
0;542
1;545
2;547
3;547
4;546
5;544
6;544
7;548
8;549
9;547
10;547
11;549
12;548
13;547
14;546
15;543
0;542
1;542
2;540
3;542
4;545
5;547
6;548
7;554
8;560
9;561
10;557
11;555
12;551
13;548
14;548
15;551
0;552
1;552
2;554
3;552
4;549
5;544
6;540
7;539
8;537
9;538
10;543
11;547
12;553
13;558
14;562
15;558
0;554
1;554
2;556
3;557
4;561
5;566
6;566
7;561
8;556
9;554
10;555
11;557
12;555
13;552
14;547
15;546
0;542
1;537
2;533
3;530
4;526
5;523
6;522
7;520
8;515
9;508
10;502
11;500
12;500
13;503
14;510
15;518
0;528
1;540
2;554
3;567
4;579
5;590
6;598
7;605
8;614
9;621
10;619
11;606
12;598
13;600
14;605
15;615
0;624
1;628
2;626
3;619
4;616
5;616
6;615
7;612
8;610
9;608
10;600
11;589
12;578
13;568
14;563
15;559
0;556
1;551
2;545
3;541
4;537
5;536
6;532
7;532
8;534
9;534
10;528
11;517
12;510
13;503
14;496
15;495
0;501
1;511
2;515
3;515
4;519
5;525
6;533
7;538
8;539
9;539
10;539
11;542
12;542
13;538
14;534
15;529
0;526
1;523
2;521
3;522
4;526
5;529
6;531
7;533
8;535
9;536
10;536
11;536
12;535
13;531
14;528
15;526
0;521
1;516
2;513
3;514
4;513
5;512
6;512
7;510
8;508
9;508
10;509
11;512
12;515
13;518
14;520
15;523
0;522
1;521
2;520
3;522
4;522
5;519
6;519
7;518
8;513
9;509
10;507
11;506
12;504
13;503
14;502
15;500
0;500
1;501
2;499
3;499
4;503
5;508
6;511
7;512
8;510
9;508
10;505
11;504
12;503
13;499
14;496
15;497
0;499
1;496
2;497
3;497
4;498
5;498
6;497
7;494
8;493
9;488
10;484
11;483
12;482
13;483
14;490
15;495
0;499
1;505
2;511
3;515
4;510
5;504
6;501
7;500
8;499
9;500
10;502
11;503
12;503
13;502
14;498
15;492
0;489
1;491
2;491
3;492
4;494
5;488
6;487
7;487
8;485
9;484
10;484
11;486
12;487
13;488
14;487
15;486
0;486
1;483
2;481
3;483
4;484
5;484
6;484
7;483
8;482
9;481
10;481
11;480
12;477
13;476
14;474
15;473
0;469
1;465
2;463
3;461
4;460
5;460
6;461
7;464
8;467
9;469
10;472
11;475
12;479
13;481
14;480
15;479
0;476
1;473
2;469
3;466
4;464
5;463
6;460
7;456
8;452
9;451
10;447
11;446
12;446
13;450
14;453
15;457
0;460
1;466
2;470
3;472
4;472
5;468
6;464
7;461
8;457
9;452
10;450
11;451
12;451
13;458
14;463
15;466
0;469
1;466
2;459
3;459
4;458
5;455
6;452
7;449
8;446
9;444
10;452
11;459
12;460
13;457
14;454
15;451
0;448
1;445
2;446
3;447
4;447
5;446
6;444
7;441
8;440
9;436
10;435
11;433
12;429
13;427
14;424
15;422
0;419
1;417
2;419
3;421
4;424
5;430
6;435
7;436
8;435
9;437
10;437
11;439
12;445
13;446
14;446
15;443
0;441
1;448
2;448
3;444
4;442
5;445
6;443
7;444
8;444
9;440
10;438
11;437
12;436
13;433
14;436
15;438
0;440
1;442
2;442
3;441
4;437
5;434
6;436
7;441
8;445
9;448
10;451
11;451
12;451
13;449
14;449
15;451
0;455
1;459
2;458
3;455
4;449
5;444
6;444
7;446
8;447
9;447
10;448
11;453
12;460
13;464
14;465
15;463
0;463
1;466
2;464
3;459
4;457
5;455
6;453
7;451
8;448
9;449
10;449
11;448
12;450
13;459
14;463
15;463
0;461
1;460
2;462
3;469
4;474
5;476
6;473
7;476
8;474
9;469
10;462
11;460
12;458
13;455
14;454
15;451
0;451
1;451
2;450
3;454
4;463
5;469
6;472
7;471
8;468
9;467
10;466
11;461
12;453
13;448
14;447
15;447
0;444
1;448
2;452
3;458
4;461
5;462
6;463
7;465
8;468
9;470
10;469
11;475
12;477
13;476
14;472
15;468
0;468
1;465
2;463
3;459
4;455
5;454
6;451
7;447
8;445
9;452
10;460
11;464
12;464
13;464
14;465
15;465
0;463
1;459
2;455
3;455
4;457
5;459
6;459
7;454
8;450
9;444
10;440
11;446
12;457
13;463
14;462
15;460
0;460
1;462
2;461
3;461
4;462
5;463
6;462
7;462
8;461
9;462
10;463
11;463
12;463
13;467
14;472
15;472
0;466
1;462
2;459
3;456
4;457
5;461
6;468
7;472
8;473
9;472
10;474
11;473
12;472
13;470
14;468
15;468
0;465
1;462
2;461
3;462
4;463
5;463
6;463
7;466
8;468
9;466
10;464
11;461
12;461
13;461
14;460
15;456
0;455
1;458
2;460
3;457
4;459
5;464
6;476
7;482
8;480
9;477
10;476
11;479
12;483
13;486
14;485
15;484
0;482
1;480
2;476
3;476
4;474
5;472
6;474
7;478
8;483
9;486
10;483
11;479
12;474
13;472
14;471
15;471
0;473
1;476
2;481
3;484
4;489
5;493
6;497
7;503
8;505
9;505
10;505
11;510
12;514
13;514
14;516
15;519
0;520
1;519
2;514
3;510
4;509
5;508
6;507
7;505
8;506
9;509
10;510
11;512
12;513
13;516
14;516
15;515
0;513
1;512
2;514
3;517
4;517
5;515
6;513
7;514
8;522
9;529
10;535
11;540
12;543
13;547
14;550
15;550
0;550
1;550
2;550
3;549
4;547
5;544
6;545
7;543
8;540
9;534
10;527
11;522
12;521
13;523
14;532
15;540
0;539
1;536
2;540
3;543
4;542
5;540
6;542
7;542
8;540
9;539
10;538
11;537
12;537
13;540
14;539
15;540
0;539
1;535
2;530
3;528
4;524
5;520
6;521
7;523
8;519
9;514
10;512
11;512
12;514
13;518
14;521
15;524
0;528
1;526
2;521
3;518
4;516
5;515
6;516
7;520
8;521
9;518
10;514
11;520
12;526
13;530
14;531
15;524
0;520
1;519
2;515
3;513
4;514
5;519
6;526
7;528
8;528
9;525
10;523
11;519
12;519
13;520
14;524
15;526
0;528
1;530
2;527
3;524
4;523
5;523
6;522
7;521
8;517
9;513
10;511
11;509
12;509
13;510
14;512
15;511
0;508
1;505
2;506
3;507
4;507
5;507
6;506
7;501
8;500
9;504
10;504
11;504
12;504
13;507
14;510
15;510
0;508
1;505
2;504
3;505
4;507
5;507
6;506
7;504
8;504
9;500
10;499
11;502
12;504
13;507
14;503
15;498
0;493
1;484
2;478
3;473
4;473
5;475
6;481
7;494
8;506
9;515
10;524
11;532
12;544
13;556
14;562
15;569
0;578
1;588
2;596
3;595
4;588
5;582
6;581
7;580
8;575
9;572
10;573
11;576
12;577
13;579
14;581
15;577
0;574
1;571
2;564
3;558
4;551
5;544
6;538
7;529
8;523
9;521
10;523
11;524
12;522
13;518
14;516
15;515
0;511
1;507
2;500
3;494
4;488
5;486
6;487
7;489
8;490
9;490
10;489
11;489
12;489
13;492
14;495
15;496
0;495
1;496
2;497
3;498
4;497
5;497
6;497
7;501
8;504
9;504
10;504
11;505
12;504
13;505
14;508
15;513
0;517
1;516
2;517
3;518
4;519
5;513
6;504
7;500
8;499
9;496
10;492
11;494
12;494
13;491
14;490
15;493
0;494
1;492
2;493
3;497
4;498
5;500
6;498
7;496
8;499
9;504
10;504
11;502
12;497
13;501
14;509
15;515
0;520
1;521
2;523
3;524
4;527
5;524
6;516
7;513
8;515
9;510
10;506
11;503
12;501
13;508
14;515
15;520
0;524
1;526
2;527
3;528
4;526
5;524
6;525
7;527
8;527
9;527
10;527
11;526
12;523
13;523
14;523
15;524
0;526
1;527
2;527
3;528
4;529
5;531
6;532
7;534
8;534
9;534
10;535
11;535
12;534
13;535
14;536
15;533
0;531
1;534
2;535
3;536
4;538
5;539
6;539
7;539
8;537
9;533
10;529
11;526
12;523
13;524
14;526
15;525
0;527
1;533
2;550
3;561
4;558
5;546
6;550
7;556
8;556
9;556
10;553
11;551
12;550
13;551
14;546
15;542
0;541
1;540
2;540
3;539
4;537
5;541
6;545
7;547
8;550
9;553
10;555
11;555
12;553
13;549
14;552
15;550
0;548
1;551
2;552
3;549
4;544
5;541
6;542
7;543
8;547
9;551
10;555
11;556
12;556
13;559
14;559
15;556
0;555
1;555
2;554
3;553
4;555
5;559
6;561
7;561
8;561
9;560
10;563
11;564
12;563
13;559
14;555
15;551
0;550
1;548
2;546
3;545
4;543
5;543
6;544
7;545
8;546
9;548
10;549
11;552
12;551
13;547
14;545
15;542
0;537
1;532
2;533
3;536
4;535
5;536
6;540
7;540
8;541
9;542
10;541
11;540
12;536
13;535
14;539
15;539
0;535
1;531
2;531
3;533
4;532
5;532
6;531
7;529
8;534
9;542
10;550
11;555
12;559
13;560
14;561
15;557
0;553
1;547
2;546
3;547
4;546
5;542
6;540
7;537
8;535
9;534
10;529
11;527
12;530
13;533
14;532
15;530
0;529
1;528
2;529
3;531
4;527
5;525
6;523
7;522
8;519
9;519
10;521
11;520
12;520
13;520
14;517
15;514
0;512
1;513
2;514
3;513
4;513
5;514
6;514
7;514
8;513
9;511
10;509
11;508
12;508
13;509
14;512
15;516
0;518
1;519
2;516
3;514
4;510
5;509
6;511
7;512
8;515
9;515
10;515
11;515
12;514
13;512
14;512
15;513
0;514
1;514
2;515
3;515
4;519
5;521
6;516
7;510
8;512
9;516
10;520
11;528
12;530
13;530
14;528
15;527
0;526
1;525
2;527
3;529
4;527
5;524
6;519
7;509
8;511
9;518
10;524
11;528
12;527
13;523
14;521
15;523
0;523
1;523
2;525
3;527
4;530
5;531
6;529
7;526
8;523
9;523
10;523
11;524
12;526
13;526
14;521
15;519
0;521
1;521
2;520
3;522
4;522
5;520
6;518
7;518
8;518
9;519
10;520
11;520
12;516
13;513
14;512
15;510
0;510
1;513
2;519
3;524
4;525
5;521
6;515
7;514
8;519
9;526
10;531
11;538
12;540
13;540
14;539
15;538
0;537
1;539
2;540
3;542
4;543
5;544
6;541
7;538
8;535
9;531
10;526
11;522
12;521
13;526
14;530
15;531
0;530
1;524
2;524
3;526
4;526
5;526
6;526
7;528
8;530
9;530
10;527
11;527
12;532
13;539
14;540
15;537
0;536
1;534
2;533
3;532
4;535
5;540
6;541
7;539
8;536
9;531
10;530
11;531
12;533
13;533
14;532
15;530
0;527
1;526
2;530
3;538
4;543
5;543
6;543
7;543
8;541
9;539
10;538
11;540
12;542
13;543
14;542
15;543
0;546
1;550
2;554
3;558
4;559
5;558
6;559
7;559
8;562
9;563
10;558
11;554
12;550
13;553
14;555
15;556
0;556
1;555
2;554
3;555
4;553
5;548
6;549
7;552
8;553
9;554
10;556
11;558
12;556
13;559
14;561
15;556
0;549
1;546
2;544
3;544
4;545
5;547
6;551
7;549
8;547
9;547
10;545
11;542
12;537
13;537
14;538
15;537
0;535
1;530
2;529
3;532
4;535
5;533
6;532
7;534
8;537
9;540
10;541
11;540
12;538
13;536
14;536
15;538
0;539
1;536
2;535
3;536
4;534
5;533
6;534
7;536
8;536
9;534
10;535
11;534
12;533
13;535
14;540
15;545
0;545
1;545
2;544
3;545
4;546
5;555
6;567
7;575
8;574
9;569
10;565
11;562
12;561
13;559
14;558
15;555
0;549
1;542
2;535
3;533
4;537
5;542
6;546
7;550
8;551
9;548
10;546
11;549
12;552
13;551
14;550
15;545
0;541
1;540
2;539
3;534
4;527
5;527
6;525
7;526
8;525
9;525
10;527
11;527
12;528
13;528
14;530
15;532
0;533
1;527
2;523
3;518
4;513
5;513
6;514
7;513
8;511
9;510
10;509
11;514
12;519
13;523
14;523
15;523
0;519
1;518
2;519
3;522
4;529
5;535
6;537
7;537
8;538
9;542
10;547
11;553
12;558
13;557
14;554
15;549
0;544
1;543
2;541
3;539
4;535
5;536
6;537
7;536
8;535
9;536
10;536
11;534
12;533
13;536
14;536
15;534
0;531
1;528
2;526
3;523
4;519
5;518
6;517
7;518
8;516
9;512
10;508
11;507
12;509
13;511
14;510
15;514
0;521
1;518
2;509
3;499
4;489
5;483
6;483
7;487
8;493
9;498
10;501
11;504
12;503
13;500
14;503
15;503
0;497
1;491
2;495
3;499
4;497
5;495
6;493
7;487
8;480
9;473
10;469
11;466
12;461
13;457
14;456
15;459
0;463
1;469
2;481
3;496
4;505
5;515
6;525
7;529
8;536
9;547
10;556
11;560
12;558
13;555
14;553
15;549
0;549
1;547
2;541
3;543
4;544
5;547
6;550
7;551
8;550
9;545
10;541
11;534
12;523
13;520
14;519
15;516
0;516
1;515
2;514
3;510
4;509
5;505
6;499
7;496
8;492
9;488
10;490
11;491
12;487
13;484
14;485
15;487
0;487
1;487
2;484
3;482
4;478
5;478
6;482
7;489
8;495
9;499
10;508
11;514
12;515
13;512
14;510
15;512
0;515
1;515
2;515
3;514
4;513
5;512
6;508
7;501
8;498
9;498
10;492
11;493
12;494
13;496
14;496
15;498
0;501
1;504
2;507
3;511
4;510
5;505
6;503
7;504
8;502
9;500
10;499
11;499
12;499
13;499
14;500
15;499
0;498
1;499
2;495
3;493
4;492
5;491
6;487
7;484
8;484
9;483
10;486
11;486
12;488
13;492
14;492
15;490
0;489
1;493
2;499
3;502
4;504
5;504
6;505
7;506
8;504
9;499
10;496
11;498
12;499
13;498
14;493
15;491
0;491
1;491
2;489
3;486
4;483
5;482
6;485
7;489
8;488
9;486
10;487
11;488
12;484
13;479
14;472
15;467
0;471
1;477
2;487
3;493
4;492
5;493
6;494
7;494
8;494
9;494
10;494
11;495
12;492
13;489
14;487
15;490
0;497
1;503
2;506
3;505
4;505
5;508
6;512
7;514
8;510
9;507
10;504
11;502
12;499
13;501
14;505
15;508
0;509
1;508
2;505
3;502
4;499
5;495
6;496
7;501
8;507
9;508
10;502
11;502
12;504
13;504
14;502
15;503
0;504
1;507
2;507
3;503
4;496
5;493
6;499
7;503
8;504
9;503
10;497
11;494
12;496
13;497
14;498
15;500
0;502
1;504
2;502
3;500
4;499
5;498
6;498
7;498
8;499
9;496
10;492
11;493
12;492
13;491
14;492
15;496
0;501
1;505
2;505
3;501
4;502
5;505
6;503
7;503
8;504
9;505
10;506
11;509
12;511
13;514
14;513
15;512
0;510
1;509
2;508
3;511
4;511
5;506
6;501
7;499
8;499
9;503
10;505
11;504
12;503
13;501
14;497
15;494
0;494
1;496
2;499
3;502
4;500
5;496
6;494
7;493
8;487
9;483
10;488
11;500
12;515
13;527
14;527
15;523
0;519
1;515
2;515
3;518
4;518
5;518
6;516
7;517
8;517
9;514
10;510
11;503
12;501
13;502
14;506
15;507
0;507
1;508
2;507
3;506
4;505
5;504
6;505
7;506
8;509
9;511
10;510
11;513
12;515
13;515
14;513
15;514
0;519
1;520
2;521
3;523
4;517
5;511
6;506
7;503
8;501
9;499
10;498
11;497
12;497
13;497
14;494
15;492
0;490
1;488
2;488
3;489
4;492
5;492
6;494
7;494
8;497
9;502
10;505
11;507
12;506
13;505
14;507
15;511
0;511
1;509
2;505
3;502
4;497
5;493
6;491
7;487
8;483
9;491
10;498
11;503
12;506
13;503
14;499
15;496
0;492
1;487
2;485
3;486
4;487
5;487
6;490
7;492
8;491
9;491
10;496
11;499
12;501
13;507
14;508
15;504
0;499
1;492
2;485
3;483
4;487
5;493
6;503
7;507
8;512
9;515
10;516
11;514
12;509
13;507
14;506
15;505
0;506
1;508
2;513
3;518
4;519
5;519
6;518
7;515
8;513
9;512
10;512
11;512
12;510
13;507
14;507
15;509
0;510
1;509
2;504
3;498
4;493
5;488
6;489
7;493
8;495
9;495
10;493
11;494
12;495
13;495
14;493
15;494
0;500
1;502
2;501
3;501
4;500
5;500
6;499
7;498
8;500
9;501
10;501
11;501
12;498
13;494
14;488
15;484
0;483
1;484
2;483
3;489
4;489
5;485
6;483
7;488
8;496
9;499
10;497
11;499
12;500
13;501
14;507
15;510
0;508
1;504
2;502
3;499
4;492
5;481
6;473
7;477
8;478
9;480
10;481
11;484
12;488
13;491
14;492
15;492
0;496
1;504
2;504
3;502
4;496
5;487
6;484
7;483
8;484
9;486
10;487
11;486
12;485
13;485
14;484
15;486
0;488
1;491
2;490
3;487
4;485
5;480
6;478
7;479
8;482
9;487
10;490
11;490
12;491
13;486
14;486
15;485
0;483
1;484
2;486
3;485
4;482
5;481
6;486
7;485
8;486
9;492
10;499
11;501
12;500
13;498
14;496
15;488
0;491
1;496
2;496
3;497
4;499
5;506
6;515
7;521
8;528
9;532
10;530
11;530
12;529
13;526
14;524
15;525
0;524
1;524
2;524
3;527
4;532
5;534
6;537
7;543
8;547
9;547
10;545
11;541
12;536
13;533
14;528
15;525
0;525
1;526
2;531
3;533
4;534
5;536
6;534
7;530
8;527
9;523
10;519
11;519
12;520
13;522
14;524
15;526
0;527
1;526
2;526
3;525
4;531
5;539
6;547
7;549
8;548
9;546
10;544
11;543
12;542
13;537
14;531
15;521
0;514
1;513
2;516
3;525
4;525
5;536
6;545
7;551
8;555
9;556
10;555
11;553
12;549
13;544
14;541
15;538
0;536
1;535
2;532
3;529
4;527
5;523
6;517
7;514
8;521
9;527
10;530
11;528
12;523
13;520
14;519
15;519
0;520
1;518
2;513
3;510
4;509
5;509
6;508
7;510
8;513
9;513
10;515
11;520
12;522
13;524
14;526
15;525
0;524
1;524
2;524
3;526
4;527
5;531
6;532
7;529
8;530
9;527
10;526
11;521
12;516
13;514
14;515
15;516
0;517
1;518
2;515
3;513
4;514
5;516
6;518
7;518
8;521
9;527
10;527
11;524
12;518
13;516
14;522
15;523
0;520
1;518
2;516
3;517
4;517
5;515
6;520
7;524
8;525
9;524
10;522
11;519
12;515
13;511
14;508
15;508
0;510
1;511
2;512
3;510
4;509
5;510
6;507
7;505
8;504
9;505
10;505
11;506
12;508
13;510
14;512
15;513
0;513
1;517
2;514
3;507
4;505
5;502
6;498
7;493
8;490
9;486
10;487
11;493
12;494
13;493
14;491
15;493
0;501
1;508
2;517
3;528
4;539
5;550
6;556
7;568
8;577
9;579
10;585
11;599
12;610
13;614
14;612
15;607
0;600
1;595
2;593
3;589
4;586
5;583
6;583
7;585
8;585
9;583
10;579
11;575
12;570
13;562
14;551
15;540
0;530
1;521
2;515
3;513
4;505
5;499
6;499
7;500
8;502
9;503
10;503
11;500
12;495
13;488
14;480
15;475
0;471
1;471
2;476
3;484
4;483
5;480
6;481
7;485
8;492
9;502
10;518
11;531
12;540
13;539
14;535
15;529
0;523
1;517
2;512
3;509
4;507
5;507
6;509
7;510
8;511
9;513
10;516
11;518
12;518
13;517
14;518
15;518
0;520
1;521
2;519
3;518
4;519
5;521
6;521
7;524
8;528
9;531
10;535
11;538
12;537
13;533
14;529
15;532
0;533
1;533
2;532
3;531
4;529
5;528
6;528
7;527
8;528
9;527
10;525
11;527
12;528
13;528
14;528
15;527
0;524
1;523
2;521
3;525
4;532
5;536
6;541
7;541
8;539
9;539
10;542
11;547
12;549
13;547
14;552
15;552
0;553
1;554
2;556
3;559
4;562
5;563
6;562
7;561
8;560
9;556
10;553
11;550
12;548
13;546
14;547
15;551
0;552
1;555
2;557
3;558
4;556
5;554
6;554
7;552
8;548
9;549
10;551
11;553
12;551
13;552
14;553
15;555
0;561
1;563
2;562
3;561
4;558
5;555
6;555
7;551
8;548
9;544
10;543
11;544
12;547
13;553
14;559
15;560
0;556
1;554
2;552
3;552
4;554
5;555
6;558
7;561
8;565
9;568
10;566
11;563
12;558
13;555
14;556
15;555
0;553
1;549
2;545
3;543
4;540
5;536
6;541
7;551
8;556
9;555
10;551
11;548
12;547
13;552
14;558
15;558
0;558
1;556
2;556
3;552
4;549
5;549
6;547
7;543
8;540
9;539
10;535
11;533
12;532
13;531
14;531
15;538
0;543
1;546
2;548
3;548
4;545
5;542
6;540
7;538
8;535
9;531
10;528
11;524
12;520
13;520
14;526
15;530
0;531
1;530
2;531
3;532
4;528
5;522
6;521
7;520
8;518
9;516
10;519
11;521
12;523
13;524
14;523
15;521
0;521
1;521
2;519
3;517
4;514
5;509
6;503
7;500
8;498
9;500
10;504
11;508
12;510
13;511
14;510
15;505
0;501
1;499
2;501
3;506
4;508
5;511
6;514
7;513
8;522
9;526
10;525
11;523
12;521
13;519
14;517
15;516
0;513
1;511
2;510
3;508
4;508
5;508
6;508
7;508
8;507
9;507
10;505
11;505
12;508
13;513
14;518
15;522
0;521
1;524
2;527
3;527
4;525
5;522
6;521
7;520
8;516
9;512
10;515
11;515
12;515
13;519
14;522
15;522
0;521
1;520
2;518
3;517
4;517
5;519
6;519
7;520
8;521
9;519
10;520
11;520
12;519
13;516
14;513
15;508
0;504
1;506
2;513
3;518
4;523
5;527
6;527
7;528
8;529
9;526
10;521
11;518
12;515
13;515
14;519
15;519
0;519
1;524
2;526
3;524
4;522
5;519
6;516
7;512
8;510
9;510
10;508
11;504
12;502
13;501
14;504
15;509
0;512
1;514
2;516
3;516
4;516
5;517
6;520
7;523
8;526
9;529
10;530
11;530
12;531
13;529
14;527
15;525
0;523
1;524
2;525
3;529
4;531
5;531
6;533
7;531
8;527
9;529
10;532
11;534
12;535
13;534
14;534
15;532
0;529
1;527
2;528
3;529
4;530
5;537
6;544
7;546
8;548
9;547
10;545
11;546
12;547
13;550
14;549
15;542
0;536
1;539
2;538
3;537
4;536
5;537
6;539
7;534
8;535
9;547
10;562
11;572
12;572
13;568
14;565
15;560
0;555
1;553
2;553
3;554
4;551
5;550
6;547
7;544
8;541
9;540
10;540
11;543
12;547
13;552
14;553
15;550
0;549
1;547
2;545
3;545
4;546
5;547
6;547
7;543
8;544
9;548
10;549
11;551
12;552
13;554
14;555
15;551
0;548
1;546
2;541
3;537
4;532
5;531
6;535
7;535
8;537
9;543
10;548
11;550
12;547
13;545
14;543
15;537
0;533
1;530
2;529
3;528
4;527
5;527
6;527
7;534
8;538
9;537
10;537
11;538
12;540
13;541
14;539
15;536
0;531
1;529
2;531
3;536
4;544
5;543
6;537
7;530
8;525
9;530
10;533
11;531
12;531
13;538
14;546
15;559
0;570
1;573
2;568
3;560
4;555
5;554
6;555
7;557
8;557
9;554
10;551
11;552
12;552
13;551
14;551
15;548
0;545
1;545
2;546
3;546
4;542
5;540
6;537
7;536
8;533
9;532
10;530
11;528
12;525
13;523
14;522
15;524
0;524
1;524
2;521
3;518
4;515
5;515
6;516
7;516
8;518
9;525
10;529
11;530
12;528
13;528
14;527
15;524
0;525
1;525
2;523
3;520
4;513
5;511
6;511
7;511
8;511
9;508
10;506
11;503
12;500
13;499
14;499
15;500
0;502
1;504
2;499
3;495
4;492
5;489
6;487
7;486
8;487
9;490
10;491
11;490
12;489
13;492
14;498
15;504
0;508
1;511
2;512
3;510
4;505
5;500
6;494
7;492
8;491
9;490
10;489
11;487
12;485
13;482
14;477
15;476
0;480
1;480
2;482
3;486
4;487
5;487
6;486
7;483
8;482
9;483
10;479
11;474
12;470
13;472
14;474
15;480
0;488
1;495
2;500
3;500
4;497
5;498
6;496
7;492
8;488
9;486
10;486
11;488
12;487
13;487
14;486
15;486
0;487
1;489
2;492
3;492
4;493
5;494
6;494
7;493
8;493
9;493
10;490
11;490
12;489
13;489
14;490
15;488
0;489
1;492
2;493
3;495
4;497
5;499
6;500
7;499
8;499
9;499
10;500
11;502
12;499
13;496
14;496
15;496
0;498
1;498
2;499
3;501
4;501
5;502
6;501
7;502
8;503
9;500
10;498
11;497
12;493
13;489
14;488
15;492
0;496
1;499
2;497
3;496
4;489
5;479
6;476
7;477
8;484
9;491
10;500
11;512
12;525
13;537
14;545
15;546
0;541
1;553
2;586
3;613
4;627
5;630
6;628
7;620
8;612
9;603
10;596
11;588
12;583
13;585
14;585
15;583
0;580
1;576
2;569
3;563
4;555
5;548
6;540
7;532
8;523
9;516
10;511
11;504
12;497
13;492
14;489
15;487
0;486
1;487
2;487
3;488
4;486
5;484
6;482
7;482
8;483
9;484
10;483
11;482
12;479
13;477
14;479
15;480
0;480
1;480
2;480
3;483
4;486
5;487
6;490
7;489
8;490
9;492
10;490
11;490
12;490
13;489
14;487
15;485
0;480
1;476
2;475
3;475
4;475
5;475
6;475
7;475
8;479
9;482
10;485
11;486
12;487
13;489
14;489
15;488
0;484
1;481
2;481
3;476
4;482
5;488
6;491
7;493
8;496
9;496
10;496
11;492
12;487
13;483
14;478
15;482
0;496
1;503
2;508
3;513
4;512
5;511
6;510
7;511
8;515
9;521
10;525
11;524
12;522
13;520
14;518
15;520
0;520
1;519
2;517
3;516
4;518
5;520
6;519
7;519
8;521
9;523
10;524
11;526
12;526
13;526
14;525
15;524
0;523
1;524
2;523
3;523
4;520
5;517
6;515
7;515
8;513
9;511
10;519
11;536
12;547
13;549
14;548
15;547
0;541
1;536
2;534
3;533
4;531
5;530
6;528
7;524
8;519
9;519
10;523
11;531
12;534
13;540
14;545
15;544
0;542
1;540
2;535
3;537
4;534
5;532
6;534
7;534
8;531
9;526
10;521
11;516
12;513
13;513
14;513
15;512
0;512
1;512
2;513
3;512
4;509
5;508
6;506
7;504
8;503
9;505
10;508
11;508
12;508
13;510
14;511
15;510
0;509
1;507
2;508
3;508
4;508
5;506
6;503
7;503
8;504
9;500
10;497
11;497
12;499
13;497
14;498
15;506
0;507
1;505
2;500
3;498
4;496
5;494
6;491
7;491
8;490
9;489
10;490
11;495
12;495
13;491
14;489
15;488
0;491
1;494
2;495
3;493
4;492
5;491
6;487
7;482
8;479
9;476
10;475
11;474
12;476
13;475
14;472
15;470
0;469
1;468
2;465
3;461
4;459
5;456
6;455
7;452
8;447
9;443
10;443
11;448
12;453
13;455
14;459
15;461
0;463
1;466
2;464
3;459
4;451
5;444
6;439
7;439
8;440
9;440
10;441
11;454
12;471
13;476
14;474
15;472
0;467
1;463
2;457
3;454
4;458
5;461
6;463
7;462
8;462
9;460
10;454
11;453
12;455
13;458
14;459
15;457
0;455
1;455
2;456
3;454
4;450
5;440
6;434
7;432
8;433
9;432
10;431
11;432
12;435
13;438
14;442
15;446
0;451
1;454
2;454
3;454
4;453
5;456
6;456
7;456
8;455
9;455
10;455
11;454
12;454
13;456
14;455
15;451
0;449
1;447
2;444
3;441
4;437
5;432
6;430
7;428
8;430
9;430
10;421
11;412
12;410
13;415
14;421
15;427
0;427
1;424
2;420
3;420
4;420
5;420
6;421
7;426
8;430
9;432
10;437
11;439
12;440
13;440
14;440
15;441
0;439
1;439
2;439
3;438
4;442
5;444
6;446
7;448
8;448
9;450
10;452
11;455
12;455
13;454
14;455
15;456
0;459
1;466
2;471
3;472
4;470
5;467
6;467
7;466
8;466
9;469
10;472
11;474
12;472
13;472
14;472
15;473
0;473
1;476
2;477
3;478
4;480
5;483
6;485
7;486
8;489
9;488
10;486
11;487
12;489
13;488
14;487
15;490
0;492
1;495
2;499
3;504
4;511
5;512
6;511
7;508
8;504
9;499
10;501
11;510
12;512
13;513
14;516
15;518
0;520
1;522
2;522
3;528
4;531
5;532
6;531
7;529
8;526
9;524
10;524
11;525
12;526
13;527
14;526
15;525
0;526
1;527
2;526
3;525
4;521
5;517
6;516
7;517
8;520
9;526
10;528
11;527
12;524
13;522
14;519
15;519
0;518
1;519
2;518
3;520
4;522
5;520
6;519
7;518
8;516
9;511
10;507
11;508
12;511
13;512
14;505
15;499
0;493
1;493
2;496
3;502
4;508
5;511
6;515
7;517
8;516
9;514
10;515
11;515
12;513
13;509
14;504
15;502
0;500
1;500
2;498
3;497
4;498
5;500
6;500
7;498
8;496
9;496
10;497
11;500
12;498
13;499
14;496
15;490
0;486
1;487
2;487
3;487
4;486
5;484
6;483
7;483
8;484
9;482
10;482
11;483
12;484
13;486
14;485
15;483
0;481
1;479
2;478
3;479
4;481
5;483
6;486
7;487
8;487
9;483
10;477
11;478
12;482
13;480
14;475
15;472
0;473
1;476
2;479
3;480
4;483
5;491
6;504
7;511
8;514
9;515
10;518
11;519
12;516
13;514
14;512
15;511
0;509
1;508
2;509
3;509
4;507
5;507
6;511
7;515
8;516
9;518
10;518
11;518
12;515
13;513
14;512
15;512
0;510
1;508
2;505
3;504
4;504
5;504
6;506
7;506
8;508
9;511
10;510
11;510
12;511
13;512
14;511
15;511
0;512
1;512
2;513
3;514
4;515
5;519
6;523
7;529
8;529
9;527
10;528
11;529
12;527
13;527
14;525
15;525
0;524
1;522
2;522
3;519
4;512
5;507
6;506
7;505
8;504
9;506
10;508
11;507
12;508
13;509
14;511
15;511
0;513
1;515
2;510
3;508
4;512
5;514
6;512
7;513
8;515
9;515
10;519
11;521
12;519
13;516
14;512
15;515
0;519
1;522
2;524
3;525
4;526
5;524
6;522
7;521
8;519
9;519
10;523
11;525
12;524
13;523
14;524
15;524
0;521
1;520
2;521
3;518
4;515
5;512
6;511
7;511
8;507
9;506
10;507
11;508
12;509
13;509
14;509
15;509
0;511
1;510
2;508
3;509
4;509
5;510
6;508
7;505
8;507
9;508
10;510
11;511
12;514
13;522
14;525
15;524
0;519
1;516
2;507
3;500
4;499
5;509
6;523
7;528
8;526
9;524
10;525
11;521
12;519
13;519
14;521
15;520
0;519
1;513
2;510
3;506
4;507
5;507
6;509
7;510
8;511
9;512
10;514
11;515
12;515
13;516
14;514
15;512
0;512
1;516
2;520
3;521
4;518
5;513
6;505
7;499
8;497
9;499
10;498
11;495
12;491
13;487
14;487
15;489
0;488
1;490
2;492
3;496
4;503
5;512
6;521
7;528
8;539
9;549
10;559
11;563
12;570
13;582
14;594
15;601
0;600
1;593
2;589
3;583
4;580
5;577
6;575
7;578
8;580
9;578
10;578
11;578
12;574
13;571
14;567
15;563
0;555
1;548
2;542
3;537
4;533
5;529
6;522
7;519
8;518
9;518
10;514
11;515
12;524
13;534
14;534
15;528
0;524
1;523
2;524
3;527
4;527
5;529
6;529
7;526
8;521
9;519
10;525
11;529
12;532
13;536
14;540
15;541
0;539
1;538
2;537
3;539
4;537
5;533
6;534
7;539
8;537
9;536
10;533
11;527
12;525
13;523
14;521
15;521
0;522
1;521
2;519
3;519
4;514
5;516
6;521
7;524
8;530
9;537
10;541
11;543
12;544
13;543
14;540
15;536
0;534
1;531
2;528
3;526
4;522
5;519
6;519
7;519
8;521
9;521
10;522
11;520
12;518
13;518
14;517
15;515
0;510
1;510
2;510
3;510
4;512
5;512
6;510
7;509
8;508
9;507
10;505
11;503
12;500
13;498
14;497
15;496
0;496
1;497
2;497
3;495
4;495
5;496
6;497
7;497
8;498
9;497
10;494
11;492
12;493
13;492
14;488
15;483
0;481
1;480
2;478
3;479
4;479
5;478
6;478
7;481
8;479
9;475
10;472
11;472
12;471
13;472
14;470
15;471
0;473
1;471
2;471
3;472
4;468
5;466
6;467
7;467
8;462
9;457
10;453
11;453
12;456
13;456
14;451
15;446
0;442
1;441
2;441
3;440
4;443
5;448
6;452
7;451
8;448
9;445
10;446
11;447
12;447
13;446
14;444
15;444
0;444
1;443
2;443
3;444
4;446
5;451
6;454
7;455
8;454
9;453
10;452
11;451
12;449
13;447
14;448
15;448
0;451
1;453
2;451
3;450
4;448
5;448
6;448
7;448
8;450
9;452
10;455
11;456
12;456
13;455
14;456
15;458
0;455
1;452
2;451
3;450
4;451
5;452
6;452
7;451
8;450
9;450
10;446
11;444
12;444
13;447
14;452
15;454
0;453
1;456
2;460
3;458
4;452
5;446
6;443
7;440
8;442
9;450
10;461
11;474
12;478
13;475
14;470
15;467
0;466
1;464
2;465
3;465
4;463
5;461
6;459
7;455
8;461
9;471
10;477
11;482
12;482
13;481
14;480
15;478
0;477
1;477
2;477
3;477
4;476
5;478
6;479
7;481
8;482
9;484
10;487
11;489
12;492
13;497
14;499
15;498
0;497
1;496
2;494
3;492
4;491
5;490
6;491
7;494
8;494
9;494
10;496
11;504
12;508
13;509
14;510
15;509
0;507
1;504
2;503
3;502
4;501
5;501
6;502
7;504
8;504
9;507
10;507
11;505
12;503
13;503
14;505
15;502
0;499
1;498
2;496
3;493
4;491
5;490
6;494
7;498
8;503
9;506
10;504
11;502
12;499
13;496
14;494
15;496
0;503
1;508
2;510
3;508
4;505
5;506
6;506
7;504
8;502
9;502
10;502
11;505
12;508
13;510
14;511
15;515
0;515
1;514
2;513
3;513
4;510
5;507
6;503
7;499
8;491
9;490
10;490
11;489
12;492
13;497
14;501
15;503
0;504
1;504
2;502
3;500
4;498
5;497
6;494
7;488
8;486
9;481
10;477
11;481
12;490
13;502
14;515
15;522
0;519
1;515
2;513
3;509
4;505
5;504
6;504
7;508
8;513
9;516
10;517
11;517
12;518
13;518
14;515
15;514
0;512
1;510
2;510
3;511
4;509
5;507
6;507
7;507
8;506
9;510
10;510
11;511
12;514
13;517
14;517
15;516
0;516
1;515
2;512
3;512
4;512
5;514
6;514
7;515
8;512
9;512
10;514
11;514
12;512
13;511
14;511
15;513
0;515
1;519
2;520
3;523
4;521
5;516
6;516
7;516
8;518
9;524
10;526
11;528
12;527
13;522
14;526
15;531
0;536
1;540
2;540
3;542
4;544
5;540
6;534
7;535
8;536
9;533
10;538
11;543
12;545
13;550
14;556
15;557
0;556
1;552
2;545
3;536
4;534
5;537
6;538
7;536
8;532
9;528
10;523
11;518
12;519
13;523
14;525
15;528
0;531
1;534
2;535
3;537
4;538
5;535
6;535
7;534
8;534
9;532
10;531
11;533
12;533
13;532
14;532
15;533
0;533
1;532
2;531
3;533
4;535
5;539
6;539
7;537
8;534
9;530
10;529
11;529
12;531
13;531
14;528
15;526
0;527
1;530
2;535
3;541
4;544
5;544
6;543
7;544
8;543
9;540
10;536
11;534
12;534
13;530
14;528
15;530
0;533
1;534
2;529
3;523
4;518
5;516
6;519
7;525
8;539
9;554
10;560
11;560
12;556
13;550
14;547
15;547
0;547
1;545
2;543
3;542
4;542
5;542
6;542
7;543
8;541
9;540
10;540
11;540
12;536
13;531
14;524
15;517
0;511
1;510
2;510
3;508
4;513
5;517
6;520
7;519
8;512
9;507
10;504
11;503
12;502
13;499
14;496
15;494
0;492
1;493
2;495
3;496
4;499
5;505
6;507
7;508
8;509
9;510
10;510
11;508
12;504
13;501
14;496
15;492
0;488
1;483
2;480
3;480
4;481
5;483
6;485
7;484
8;482
9;481
10;481
11;481
12;489
13;499
14;506
15;509
0;511
1;512
2;508
3;511
4;513
5;511
6;511
7;509
8;507
9;504
10;502
11;499
12;494
13;491
14;490
15;487
0;484
1;484
2;483
3;483
4;484
5;488
6;490
7;497
8;503
9;504
10;506
11;504
12;502
13;501
14;504
15;505
0;504
1;501
2;498
3;495
4;493
5;493
6;499
7;501
8;503
9;505
10;507
11;508
12;506
13;503
14;502
15;499
0;497
1;495
2;492
3;491
4;487
5;485
6;486
7;488
8;495
9;497
10;496
11;496
12;496
13;498
14;499
15;496
0;494
1;492
2;490
3;489
4;489
5;487
6;487
7;487
8;487
9;489
10;494
11;497
12;498
13;498
14;499
15;497
0;494
1;490
2;487
3;487
4;484
5;481
6;479
7;477
8;478
9;480
10;483
11;490
12;497
13;496
14;496
15;496
0;493
1;490
2;493
3;496
4;499
5;502
6;504
7;505
8;503
9;505
10;506
11;506
12;506
13;505
14;504
15;501
0;499
1;500
2;501
3;504
4;509
5;510
6;510
7;511
8;510
9;509
10;509
11;511
12;513
13;516
14;518
15;519
0;521
1;520
2;520
3;517
4;513
5;511
6;509
7;503
8;495
9;491
10;492
11;495
12;500
13;509
14;519
15;531
0;542
1;548
2;554
3;562
4;574
5;586
6;598
7;611
8;619
9;622
10;620
11;618
12;619
13;615
14;611
15;610
0;614
1;618
2;617
3;619
4;620
5;618
6;611
7;604
8;597
9;588
10;583
11;581
12;580
13;579
14;575
15;570
0;565
1;563
2;561
3;556
4;552
5;550
6;549
7;548
8;545
9;540
10;542
11;546
12;551
13;553
14;555
15;556
0;552
1;549
2;548
3;549
4;548
5;551
6;556
7;556
8;554
9;553
10;550
11;552
12;555
13;560
14;562
15;559
0;558
1;555
2;551
3;550
4;548
5;547
6;548
7;550
8;552
9;558
10;563
11;568
12;571
13;569
14;567
15;563
0;560
1;557
2;556
3;555
4;554
5;555
6;556
7;558
8;556
9;549
10;541
11;538
12;537
13;536
14;540
15;548
0;552
1;553
2;554
3;556
4;557
5;556
6;556
7;555
8;554
9;558
10;559
11;554
12;552
13;554
14;556
15;556
0;554
1;556
2;557
3;553
4;553
5;552
6;550
7;549
8;548
9;548
10;547
11;547
12;548
13;547
14;549
15;550
0;548
1;550
2;548
3;547
4;548
5;549
6;549
7;546
8;544
9;539
10;534
11;531
12;532
13;531
14;534
15;534
0;538
1;537
2;538
3;542
4;540
5;538
6;539
7;537
8;533
9;534
10;537
11;532
12;534
13;542
14;544
15;547
0;552
1;558
2;566
3;571
4;572
5;568
6;564
7;562
8;560
9;558
10;555
11;553
12;551
13;549
14;548
15;546
0;545
1;544
2;544
3;543
4;543
5;547
6;552
7;552
8;549
9;543
10;541
11;541
12;540
13;540
14;539
15;540
0;543
1;544
2;546
3;547
4;550
5;552
6;552
7;552
8;551
9;547
10;541
11;537
12;536
13;533
14;534
15;536
0;539
1;544
2;547
3;551
4;556
5;560
6;563
7;566
8;565
9;562
10;560
11;560
12;560
13;563
14;561
15;561
0;561
1;558
2;555
3;552
4;551
5;552
6;559
7;564
8;566
9;568
10;563
11;558
12;551
13;545
14;542
15;545
0;548
1;560
2;575
3;583
4;586
5;593
6;596
7;595
8;592
9;590
10;586
11;582
12;578
13;572
14;569
15;567
0;564
1;562
2;561
3;560
4;560
5;560
6;562
7;561
8;559
9;555
10;553
11;553
12;552
13;551
14;550
15;548
0;547
1;547
2;548
3;549
4;549
5;548
6;549
7;553
8;555
9;555
10;554
11;553
12;551
13;551
14;551
15;552
0;552
1;552
2;550
3;547
4;541
5;537
6;538
7;541
8;543
9;543
10;543
11;542
12;538
13;536
14;532
15;530
0;529
1;528
2;530
3;535
4;537
5;538
6;538
7;537
8;537
9;537
10;536
11;538
12;540
13;540
14;540
15;540
0;536
1;535
2;531
3;528
4;530
5;531
6;531
7;528
8;527
9;531
10;532
11;530
12;527
13;524
14;523
15;521
0;519
1;516
2;515
3;516
4;519
5;530
6;538
7;537
8;535
9;538
10;544
11;544
12;543
13;540
14;537
15;530
0;524
1;522
2;522
3;524
4;525
5;527
6;531
7;535
8;536
9;535
10;535
11;535
12;534
13;533
14;532
15;531
0;531
1;535
2;533
3;529
4;525
5;526
6;526
7;525
8;524
9;525
10;526
11;528
12;527
13;521
14;517
15;514
0;510
1;508
2;512
3;515
4;515
5;516
6;515
7;512
8;513
9;511
10;512
11;515
12;518
13;521
14;521
15;519
0;518
1;519
2;517
3;515
4;512
5;509
6;511
7;515
8;515
9;515
10;517
11;518
12;519
13;520
14;522
15;523
0;523
1;523
2;517
3;519
4;527
5;531
6;525
7;517
8;516
9;513
10;513
11;513
12;512
13;511
14;512
15;515
0;517
1;515
2;512
3;513
4;512
5;511
6;512
7;514
8;513
9;512
10;512
11;512
12;512
13;512
14;511
15;510
0;508
1;508
2;507
3;505
4;504
5;503
6;503
7;499
8;494
9;489
10;486
11;484
12;487
13;488
14;494
15;496
0;500
1;504
2;510
3;512
4;507
5;505
6;504
7;504
8;502
9;502
10;503
11;501
12;497
13;497
14;496
15;495
0;494
1;493
2;491
3;489
4;488
5;487
6;489
7;489
8;488
9;487
10;487
11;489
12;489
13;487
14;488
15;491
0;492
1;491
2;489
3;487
4;487
5;484
6;483
7;482
8;481
9;474
10;471
11;473
12;474
13;474
14;472
15;470
0;467
1;463
2;466
3;470
4;469
5;465
6;466
7;465
8;461
9;456
10;455
11;464
12;475
13;478
14;479
15;477
0;477
1;478
2;478
3;478
4;474
5;473
6;474
7;468
8;458
9;451
10;449
11;452
12;458
13;467
14;477
15;480
0;481
1;480
2;483
3;484
4;480
5;478
6;476
7;476
8;473
9;470
10;468
11;467
12;465
13;463
14;461
15;462
0;464
1;465
2;467
3;470
4;471
5;471
6;472
7;472
8;471
9;471
10;469
11;466
12;464
13;460
14;457
15;456
0;456
1;457
2;461
3;466
4;468
5;467
6;466
7;464
8;467
9;468
10;468
11;468
12;468
13;469
14;470
15;471
0;474
1;477
2;481
3;485
4;484
5;481
6;485
7;493
8;495
9;494
10;494
11;493
12;488
13;483
14;479
15;479
0;476
1;478
2;480
3;480
4;481
5;487
6;492
7;500
8;504
9;505
10;503
11;502
12;503
13;504
14;504
15;504
0;503
1;503
2;504
3;505
4;506
5;508
6;512
7;514
8;516
9;516
10;515
11;516
12;518
13;519
14;515
15;510
0;506
1;503
2;503
3;502
4;498
5;500
6;503
7;507
8;511
9;515
10;513
11;510
12;507
13;503
14;501
15;499
0;496
1;497
2;493
3;487
4;486
5;486
6;487
7;489
8;493
9;494
10;493
11;493
12;494
13;492
14;491
15;495
0;494
1;491
2;489
3;486
4;482
5;476
6;479
7;484
8;485
9;484
10;484
11;482
12;480
13;478
14;478
15;476
0;476
1;477
2;480
3;482
4;483
5;482
6;481
7;481
8;482
9;481
10;480
11;481
12;482
13;487
14;492
15;492
0;494
1;496
2;498
3;496
4;493
5;493
6;493
7;495
8;497
9;502
10;506
11;505
12;504
13;508
14;509
15;510
0;511
1;510
2;508
3;508
4;509
5;507
6;510
7;513
8;515
9;516
10;516
11;519
12;518
13;514
14;508
15;504
0;501
1;496
2;494
3;490
4;486
5;484
6;486
7;494
8;507
9;516
10;526
11;532
12;533
13;535
14;532
15;526
0;521
1;515
2;511
3;507
4;506
5;504
6;501
7;497
8;488
9;477
10;468
11;462
12;462
13;463
14;467
15;475
0;485
1;496
2;504
3;509
4;515
5;520
6;529
7;538
8;550
9;559
10;568
11;569
12;563
13;558
14;554
15;549
0;545
1;539
2;536
3;535
4;535
5;534
6;532
7;527
8;526
9;524
10;519
11;515
12;512
13;505
14;499
15;496
0;496
1;496
2;494
3;484
4;479
5;479
6;476
7;469
8;465
9;466
10;464
11;462
12;460
13;458
14;457
15;458
0;459
1;457
2;457
3;459
4;459
5;459
6;461
7;463
8;463
9;463
10;466
11;473
12;479
13;483
14;483
15;486
0;488
1;489
2;487
3;487
4;487
5;485
6;487
7;492
8;492
9;491
10;492
11;493
12;494
13;493
14;497
15;497
0;497
1;499
2;500
3;500
4;500
5;498
6;497
7;496
8;496
9;499
10;501
11;504
12;507
13;509
14;509
15;507
0;506
1;505
2;506
3;507
4;504
5;502
6;500
7;500
8;500
9;498
10;499
11;501
12;501
13;502
14;502
15;504
0;506
1;508
2;508
3;508
4;507
5;507
6;508
7;507
8;506
9;505
10;506
11;505
12;504
13;503
14;505
15;504
0;504
1;507
2;510
3;511
4;508
5;504
6;504
7;503
8;504
9;510
10;515
11;519
12;519
13;518
14;518
15;518
0;516
1;515
2;514
3;512
4;512
5;511
6;510
7;512
8;512
9;514
10;515
11;518
12;519
13;519
14;518
15;518
0;518
1;521
2;524
3;527
4;529
5;530
6;528
7;526
8;524
9;524
10;525
11;526
12;528
13;527
14;527
15;528
0;531
1;532
2;533
3;533
4;534
5;535
6;536
7;538
8;542
9;539
10;535
11;529
12;524
13;517
14;518
15;522
0;522
1;524
2;523
3;525
4;527
5;533
6;543
7;549
8;541
9;533
10;529
11;526
12;525
13;524
14;526
15;532
0;535
1;535
2;535
3;534
4;531
5;531
6;530
7;529
8;531
9;530
10;531
11;534
12;530
13;529
14;527
15;528
0;529
1;530
2;531
3;532
4;531
5;527
6;522
7;517
8;516
9;518
10;523
11;526
12;529
13;531
14;530
15;527
0;524
1;527
2;531
3;533
4;537
5;540
6;539
7;536
8;535
9;534
10;531
11;528
12;524
13;520
14;516
15;513
0;514
1;515
2;520
3;524
4;525
5;526
6;522
7;521
8;523
9;527
10;530
11;535
12;536
13;537
14;532
15;531
0;531
1;528
2;525
3;524
4;526
5;531
6;532
7;534
8;538
9;543
10;539
11;536
12;539
13;540
14;540
15;536
0;528
1;522
2;521
3;523
4;523
5;527
6;531
7;530
8;526
9;527
10;530
11;532
12;533
13;531
14;528
15;526
0;526
1;526
2;524
3;523
4;522
5;519
6;515
7;514
8;517
9;519
10;519
11;521
12;519
13;519
14;519
15;519
0;521
1;521
2;522
3;520
4;519
5;519
6;519
7;521
8;520
9;521
10;521
11;522
12;522
13;519
14;516
15;514
0;515
1;517
2;519
3;521
4;520
5;521
6;521
7;522
8;519
9;517
10;515
11;516
12;515
13;514
14;514
15;511
0;507
1;508
2;508
3;507
4;507
5;508
6;509
7;508
8;504
9;501
10;499
11;497
12;495
13;496
14;499
15;498
0;496
1;493
2;490
3;488
4;487
5;482
6;477
7;472
8;472
9;473
10;473
11;471
12;467
13;477
14;485
15;490
0;484
1;481
2;481
3;484
4;487
5;493
6;498
7;504
8;506
9;505
10;505
11;500
12;500
13;501
14;499
15;499
0;498
1;497
2;497
3;496
4;494
5;493
6;492
7;492
8;494
9;495
10;497
11;499
12;497
13;498
14;498
15;496
0;496
1;495
2;495
3;497
4;499
5;501
6;504
7;504
8;502
9;502
10;503
11;504
12;505
13;505
14;504
15;503
0;502
1;500
2;499
3;498
4;498
5;501
6;503
7;503
8;501
9;502
10;503
11;505
12;507
13;506
14;504
15;504
0;503
1;499
2;497
3;497
4;495
5;491
6;487
7;479
8;472
9;471
10;474
11;478
12;478
13;480
14;489
15;503
0;514
1;517
2;520
3;516
4;511
5;506
6;502
7;499
8;499
9;499
10;497
11;497
12;500
13;500
14;502
15;503
0;505
1;505
2;505
3;504
4;502
5;502
6;505
7;508
8;508
9;507
10;504
11;501
12;499
13;501
14;503
15;504
0;506
1;506
2;504
3;501
4;496
5;494
6;495
7;495
8;496
9;497
10;497
11;497
12;497
13;494
14;489
15;487
0;484
1;482
2;479
3;476
4;475
5;473
6;471
7;470
8;470
9;471
10;471
11;470
12;470
13;469
14;466
15;463
0;464
1;466
2;469
3;469
4;466
5;463
6;460
7;458
8;459
9;461
10;462
11;463
12;464
13;467
14;467
15;469
0;474
1;478
2;480
3;481
4;478
5;472
6;464
7;459
8;455
9;450
10;448
11;451
12;460
13;467
14;472
15;475
0;477
1;479
2;477
3;477
4;478
5;477
6;476
7;474
8;472
9;469
10;465
11;463
12;460
13;460
14;463
15;464
0;466
1;466
2;467
3;466
4;463
5;462
6;461
7;463
8;465
9;467
10;466
11;468
12;466
13;466
14;468
15;473
0;478
1;483
2;483
3;481
4;481
5;483
6;483
7;480
8;475
9;480
10;479
11;472
12;470
13;468
14;466
15;466
0;479
1;493
2;504
3;512
4;515
5;513
6;510
7;508
8;504
9;502
10;500
11;498
12;496
13;494
14;491
15;490
0;490
1;490
2;493
3;495
4;496
5;498
6;498
7;498
8;498
9;498
10;496
11;497
12;498
13;499
14;500
15;500
0;499
1;499
2;498
3;497
4;497
5;494
6;491
7;488
8;489
9;492
10;492
11;490
12;487
13;483
14;481
15;481
0;484
1;487
2;488
3;486
4;483
5;485
6;487
7;488
8;487
9;486
10;484
11;479
12;475
13;478
14;481
15;483
0;483
1;482
2;481
3;481
4;484
5;483
6;483
7;482
8;483
9;483
10;486
11;489
12;492
13;492
