0;482
1;481
2;477
3;474
4;470
5;467
6;471
7;476
8;480
9;481
10;480
11;481
12;484
13;486
14;487
15;491
0;499
1;505
2;507
3;509
4;504
5;497
6;491
7;489
8;491
9;491
10;492
11;492
12;491
13;491
14;494
15;497
0;503
1;504
2;502
3;500
4;501
5;499
6;498
7;498
8;497
9;494
10;487
11;486
12;487
13;487
14;490
15;497
0;504
1;511
2;515
3;516
4;511
5;501
6;493
7;490
8;489
9;488
10;487
11;491
12;496
13;496
14;495
15;504
0;511
1;515
2;516
3;517
4;515
5;510
6;505
7;501
8;495
9;495
10;495
11;496
12;498
13;499
14;501
15;504
0;508
1;504
2;505
3;513
4;518
5;519
6;521
7;523
8;524
9;523
10;520
11;516
12;515
13;517
14;522
15;529
0;531
1;526
2;521
3;517
4;515
5;517
6;519
7;519
8;517
9;516
10;514
11;512
12;512
13;514
14;518
15;518
0;518
1;514
2;508
3;505
4;510
5;513
6;513
7;515
8;513
9;511
10;511
11;511
12;509
13;508
14;511
15;514
0;516
1;519
2;525
3;529
4;527
5;524
6;520
7;519
8;517
9;515
10;513
11;512
12;512
13;509
14;508
15;506
0;505
1;508
2;511
3;512
4;510
5;510
6;515
7;520
8;517
9;512
10;511
11;510
12;511
13;511
14;514
15;517
0;517
1;513
2;518
3;520
4;519
5;520
6;519
7;523
8;525
9;521
10;518
11;522
12;524
13;525
14;524
15;517
0;511
1;504
2;503
3;508
4;515
5;521
6;523
7;525
8;526
9;527
10;530
11;527
12;521
13;518
14;510
15;502
0;499
1;500
2;503
3;506
4;511
5;518
6;526
7;531
8;530
9;526
10;518
11;506
12;499
13;498
14;496
15;495
0;492
1;492
2;492
3;492
4;495
5;501
6;508
7;512
8;513
9;513
10;510
11;507
12;510
13;512
14;511
15;513
0;515
1;515
2;516
3;519
4;520
5;520
6;521
7;520
8;518
9;519
10;520
11;525
12;529
13;532
14;530
15;528
0;526
1;524
2;521
3;524
4;527
5;530
6;533
7;531
8;529
9;529
10;529
11;527
12;524
13;521
14;521
15;523
0;524
1;525
2;526
3;527
4;528
5;527
6;524
7;519
8;514
9;510
10;509
11;507
12;502
13;498
14;499
15;503
0;502
1;499
2;498
3;495
4;489
5;487
6;488
7;488
8;492
9;503
10;509
11;509
12;504
13;500
14;497
15;495
0;493
1;490
2;488
3;498
4;507
5;511
6;511
7;509
8;506
9;501
10;499
11;502
12;506
13;509
14;504
15;500
0;497
1;494
2;492
3;494
4;497
5;500
6;502
7;503
8;503
9;502
10;502
11;504
12;508
13;512
14;512
15;512
0;512
1;512
2;512
3;509
4;506
5;505
6;506
7;509
8;509
9;513
10;516
11;515
12;514
13;516
14;516
15;511
0;505
1;500
2;496
3;492
4;491
5;496
6;499
7;502
8;504
9;503
10;503
11;506
12;506
13;506
14;505
15;505
0;508
1;511
2;513
3;518
4;522
5;527
6;534
7;541
8;547
9;556
10;572
11;589
12;609
13;631
14;653
15;675
0;693
1;709
2;722
3;726
4;728
5;734
6;741
7;744
8;748
9;755
10;762
11;757
12;744
13;727
14;712
15;699
0;682
1;656
2;633
3;607
4;583
5;550
6;504
7;466
8;434
9;406
10;382
11;367
12;353
13;344
14;345
15;350
0;355
1;359
2;361
3;364
4;371
5;377
6;383
7;387
8;393
9;399
10;406
11;411
12;413
13;422
14;430
15;436
0;445
1;452
2;455
3;456
4;457
5;458
6;460
7;464
8;467
9;467
10;471
11;474
12;474
13;477
14;482
15;485
0;487
1;491
2;493
3;494
4;496
5;499
6;500
7;500
8;504
9;507
10;508
11;511
12;514
13;510
14;503
15;508
0;517
1;519
2;522
3;527
4;526
5;520
6;513
7;506
8;501
9;497
10;488
11;484
12;486
13;490
14;496
15;504
0;509
1;512
2;513
3;514
4;514
5;514
6;513
7;511
8;509
9;508
10;506
11;504
12;503
13;504
14;506
15;509
0;513
1;518
2;525
3;530
4;532
5;535
6;535
7;530
8;525
9;522
10;519
11;516
12;512
13;513
14;518
15;518
0;523
1;527
2;533
3;539
4;538
5;536
6;534
7;533
8;536
9;539
10;546
11;549
12;544
13;538
14;534
15;538
0;541
1;547
2;551
3;549
4;546
5;540
6;532
7;524
8;519
9;521
10;522
11;521
12;524
13;527
14;525
15;522
0;520
1;525
2;534
3;541
4;542
5;543
6;543
7;541
8;538
9;531
10;529
11;529
12;528
13;529
14;527
15;522
0;519
1;521
2;529
3;541
4;551
5;558
6;561
7;560
8;556
9;554
10;549
11;543
12;541
13;545
14;546
15;547
0;548
1;553
2;556
3;558
4;562
5;561
6;560
7;563
8;567
9;567
10;564
11;559
12;557
13;558
14;558
15;556
0;557
1;560
2;564
3;569
4;574
5;578
6;583
7;578
8;571
9;566
10;561
11;561
12;562
13;558
14;555
15;552
0;552
1;556
2;557
3;555
4;555
5;558
6;556
7;553
8;551
9;550
10;548
11;546
12;541
13;535
14;533
15;530
0;529
1;528
2;531
3;535
4;537
5;540
6;543
7;540
8;535
9;529
10;519
11;506
12;499
13;496
14;494
15;497
0;500
1;501
2;501
3;499
4;495
5;492
6;493
7;496
8;497
9;496
10;494
11;493
12;492
13;493
14;491
15;484
0;479
1;478
2;480
3;483
4;485
5;487
6;490
7;492
8;491
9;495
10;499
11;500
12;497
13;495
14;491
15;484
0;480
1;479
2;480
3;486
4;489
5;486
6;483
7;479
8;475
9;473
10;473
11;473
12;468
13;469
14;472
15;473
0;477
1;480
2;479
3;472
4;466
5;461
6;460
7;466
8;476
9;485
10;487
11;488
12;490
13;491
14;492
15;491
0;486
1;483
2;482
3;480
4;478
5;476
6;476
7;479
8;483
9;485
10;483
11;483
12;485
13;487
14;487
15;485
0;483
1;483
2;485
3;488
4;490
5;489
6;492
7;494
8;496
9;499
10;499
11;500
12;504
13;506
14;504
15;503
0;501
1;500
2;499
3;496
4;492
5;493
6;496
7;492
8;489
9;489
10;491
11;497
12;501
13;504
14;510
15;516
0;517
1;514
2;512
3;506
4;498
5;492
6;489
7;486
8;484
9;486
10;489
11;493
12;496
13;498
14;499
15;496
0;494
1;492
2;492
3;492
4;491
5;494
6;496
7;497
8;499
9;499
10;502
11;506
12;508
13;508
14;508
15;506
0;501
1;497
2;495
3;493
4;490
5;489
6;491
7;496
8;505
9;511
10;514
11;516
12;520
13;524
14;523
15;521
0;521
1;521
2;521
3;519
4;518
5;518
6;517
7;515
8;511
9;508
10;510
11;513
12;511
13;511
14;512
15;510
0;506
1;499
2;495
3;500
4;506
5;513
6;518
7;517
8;508
9;498
10;490
11;492
12;499
13;511
14;518
15;521
0;526
1;530
2;530
3;528
4;525
5;523
6;519
7;516
8;515
9;512
10;512
11;514
12;517
13;518
14;515
15;516
0;517
1;518
2;518
3;516
4;516
5;518
6;515
7;512
8;511
9;511
10;511
11;513
12;516
13;519
14;523
15;527
0;528
1;531
2;532
3;533
4;532
5;531
6;532
7;529
8;526
9;526
10;526
11;524
12;526
13;527
14;530
15;534
0;539
1;540
2;544
3;545
4;546
5;543
6;538
7;535
8;529
9;523
10;521
11;524
12;529
13;531
14;531
15;533
0;539
1;544
2;548
3;551
4;557
5;563
6;566
7;562
8;558
9;555
10;552
11;551
12;546
13;544
14;542
15;543
0;543
1;541
2;538
3;536
4;532
5;532
6;534
7;536
8;532
9;526
10;521
11;519
12;516
13;515
14;516
15;519
0;521
1;526
2;527
3;525
4;522
5;518
6;515
7;515
8;515
9;513
10;511
11;511
12;513
13;511
14;510
15;511
0;513
1;514
2;517
3;523
4;522
5;520
6;518
7;514
8;512
9;510
10;511
11;510
12;508
13;506
14;504
15;505
0;511
1;510
2;512
3;518
4;522
5;524
6;528
7;526
8;522
9;518
10;516
11;514
12;514
13;513
14;516
15;518
0;519
1;521
2;522
3;522
4;524
5;525
6;526
7;526
8;524
9;524
10;523
11;521
12;520
13;523
14;525
15;526
0;529
1;532
2;532
3;532
4;532
5;531
6;529
7;528
8;528
9;526
10;525
11;524
12;522
13;520
14;518
15;518
0;519
1;525
2;532
3;539
4;544
5;552
6;556
7;562
8;566
9;571
10;579
11;592
12;608
13;625
14;639
15;657
0;675
1;692
2;707
3;722
4;736
5;745
6;750
7;756
8;761
9;761
10;758
11;755
12;748
13;736
14;723
15;707
0;690
1;671
2;651
3;630
4;606
5;579
6;550
7;519
8;486
9;457
10;430
11;406
12;387
13;375
14;368
15;363
0;365
1;371
2;381
3;384
4;386
5;392
6;400
7;408
8;415
9;423
10;431
11;437
12;441
13;448
14;446
15;438
0;434
1;437
2;438
3;440
4;445
5;451
6;457
7;469
8;475
9;476
10;481
11;483
12;480
13;481
14;479
15;477
0;473
1;471
2;475
3;485
4;498
5;502
6;502
7;506
8;514
9;519
10;523
11;523
12;526
13;527
14;527
15;524
0;511
1;500
2;495
3;495
4;499
5;504
6;507
7;506
8;508
9;512
10;514
11;516
12;519
13;517
14;517
15;515
0;511
1;508
2;511
3;515
4;515
5;516
6;517
7;517
8;519
9;520
10;521
11;519
12;517
13;520
14;523
15;524
0;528
1;531
2;528
3;527
4;524
5;524
6;526
7;531
8;534
9;536
10;540
11;542
12;541
13;539
14;535
15;531
0;526
1;519
2;518
3;514
4;509
5;506
6;509
7;504
8;502
9;504
10;508
11;511
12;514
13;515
14;513
15;512
0;507
1;501
2;503
3;513
4;524
5;526
6;525
7;525
8;527
9;529
10;530
11;531
12;535
13;536
14;536
15;536
0;535
1;536
2;535
3;534
4;532
5;531
6;531
7;531
8;534
9;537
10;539
11;539
12;539
13;539
14;538
15;538
0;538
1;537
2;538
3;539
4;538
5;537
6;534
7;532
8;534
9;538
10;543
11;546
12;551
13;557
14;560
15;559
0;556
1;553
2;547
3;544
4;543
5;538
6;538
7;540
8;540
9;548
10;559
11;565
12;568
13;572
14;570
15;569
0;571
1;571
2;565
3;563
4;561
5;556
6;548
7;543
8;545
9;543
10;541
11;540
12;534
13;530
14;534
15;538
0;545
1;547
2;546
3;543
4;540
5;536
6;532
7;529
8;530
9;530
10;531
11;534
12;538
13;540
14;539
15;536
0;531
1;525
2;519
3;515
4;512
5;510
6;508
7;503
8;498
9;497
10;494
11;491
12;492
13;495
14;496
15;497
0;499
1;502
2;502
3;500
4;496
5;494
6;489
7;483
8;478
9;477
10;475
11;473
12;471
13;467
14;462
15;463
0;466
1;465
2;466
3;468
4;470
5;474
6;476
7;475
8;471
9;470
10;467
11;464
12;460
13;459
14;459
15;460
0;461
1;464
2;467
3;469
4;468
5;466
6;465
7;463
8;461
9;460
10;459
11;457
12;456
13;456
14;458
15;460
0;462
1;463
2;463
3;467
4;468
5;467
6;466
7;464
8;459
9;456
10;455
11;455
12;454
13;452
14;462
15;469
0;470
1;475
2;478
3;482
4;485
5;487
6;486
7;483
8;478
9;472
10;469
11;472
12;477
13;478
14;474
15;472
0;470
1;469
2;469
3;471
4;472
5;478
6;481
7;481
8;477
9;475
10;475
11;475
12;479
13;481
14;481
15;479
0;479
1;479
2;477
3;476
4;479
5;480
6;481
7;483
8;485
9;484
10;481
11;480
12;480
13;480
14;483
15;484
0;485
1;487
2;487
3;488
4;490
5;492
6;494
7;494
8;494
9;495
10;495
11;494
12;490
13;487
14;489
15;487
0;486
1;486
2;487
3;487
4;492
5;500
6;504
7;506
8;506
9;504
10;501
11;501
12;499
13;496
14;495
15;493
0;492
1;492
2;498
3;504
4;510
5;513
6;514
7;513
8;513
9;511
10;505
11;499
12;495
13;494
14;491
15;493
0;492
1;495
2;494
3;492
4;493
5;499
6;502
7;503
8;502
9;502
10;502
11;504
12;507
13;507
14;507
15;510
0;512
1;511
2;508
3;506
4;510
5;512
6;513
7;517
8;518
9;517
10;515
11;513
12;511
13;509
14;506
15;503
0;503
1;504
2;503
3;499
4;495
5;493
6;494
7;496
8;499
9;502
10;505
11;505
12;505
13;507
14;507
15;502
0;496
1;492
2;494
3;496
4;499
5;504
6;506
7;505
8;503
9;505
10;507
11;508
12;510
13;511
14;509
15;504
0;500
1;497
2;495
3;499
4;504
5;509
6;513
7;515
8;514
9;515
10;511
11;512
12;516
13;517
14;513
15;510
0;504
1;499
2;500
3;501
4;502
5;504
6;509
7;516
8;524
9;530
10;531
11;528
12;524
13;525
14;527
15;523
0;519
1;517
2;513
3;512
4;513
5;513
6;519
7;527
8;530
9;528
10;527
11;525
12;521
13;517
14;513
15;509
0;504
1;498
2;496
3;494
4;492
5;491
6;486
7;482
8;483
9;483
10;493
11;496
12;499
13;503
14;507
15;510
0;513
1;515
2;513
3;508
4;499
5;493
6;489
7;491
8;492
9;493
10;496
11;500
12;501
13;497
14;498
15;503
0;504
1;501
2;495
3;487
4;480
5;478
6;482
7;483
8;483
9;486
10;489
11;492
12;494
13;496
14;499
15;500
0;502
1;504
2;507
3;510
4;508
5;507
6;509
7;503
8;491
9;483
10;481
11;486
12;495
13;501
14;500
15;502
0;502
1;498
2;494
3;492
4;493
5;490
6;486
7;480
8;473
9;466
10;464
11;470
12;480
13;490
14;497
15;502
0;507
1;508
2;510
3;512
4;515
5;519
6;520
7;521
8;521
9;515
10;509
11;505
12;504
13;504
14;511
15;520
0;527
1;537
2;548
3;558
4;566
5;566
6;564
7;568
8;575
9;584
10;603
11;631
12;655
13;675
14;692
15;707
0;714
1;717
2;721
3;726
4;732
5;732
6;729
7;723
8;713
9;697
10;680
11;665
12;652
13;636
14;614
15;594
0;568
1;540
2;507
3;472
4;437
5;405
6;380
7;361
8;347
9;337
10;334
11;338
12;341
13;346
14;353
15;359
0;368
1;377
2;387
3;396
4;402
5;405
6;408
7;410
8;409
9;409
10;414
11;419
12;421
13;425
14;431
15;438
0;447
1;453
2;459
3;465
4;470
5;471
6;472
7;473
8;472
9;471
10;469
11;468
12;467
13;468
14;470
15;472
0;475
1;477
2;475
3;472
4;473
5;476
6;477
7;480
8;482
9;484
10;483
11;484
12;482
13;472
14;464
15;463
0;465
1;468
2;475
3;483
4;491
5;498
6;506
7;509
8;510
9;506
10;498
11;488
12;485
13;485
14;488
15;490
0;493
1;499
2;505
3;512
4;519
5;521
6;524
7;524
8;523
9;519
10;518
11;513
12;508
13;503
14;500
15;500
0;503
1;506
2;512
3;520
4;523
5;524
6;527
7;525
8;518
9;513
10;511
11;510
12;512
13;512
14;509
15;507
0;505
1;507
2;509
3;511
4;511
5;508
6;506
7;506
8;503
9;498
10;495
11;496
12;497
13;498
14;503
15;509
0;515
1;520
2;520
3;519
4;518
5;516
6;516
7;518
8;519
9;523
10;524
11;519
12;516
13;515
14;513
15;511
0;511
1;515
2;519
3;519
4;517
5;519
6;520
7;522
8;518
9;515
10;515
11;514
12;519
13;523
14;524
15;527
0;534
1;537
2;542
3;548
4;546
5;542
6;543
7;549
8;554
9;558
10;561
11;561
12;558
13;548
14;537
15;531
0;530
1;530
2;528
3;527
4;527
5;530
6;534
7;532
8;528
9;533
10;538
11;542
12;544
13;547
14;547
15;544
0;542
1;540
2;540
3;540
4;542
5;544
6;543
7;544
8;548
9;547
10;548
11;546
12;543
13;543
14;540
15;539
0;536
1;536
2;536
3;535
4;534
5;531
6;527
7;525
8;524
9;523
10;523
11;521
12;520
13;518
14;515
15;512
0;509
1;504
2;496
3;489
4;485
5;480
6;477
7;480
8;487
9;491
10;494
11;496
12;494
13;492
14;488
15;484
0;479
1;475
2;472
3;468
4;466
5;468
6;472
7;473
8;476
9;477
10;480
11;481
12;483
13;489
14;492
15;497
0;499
1;494
2;487
3;479
4;470
5;463
6;459
7;454
8;449
9;451
10;457
11;459
12;459
13;460
14;464
15;466
0;463
1;462
2;457
3;452
4;448
5;444
6;442
7;442
8;445
9;446
10;447
11;450
12;454
13;455
14;455
15;457
0;463
1;466
2;468
3;468
4;467
5;467
6;464
7;465
8;467
9;471
10;474
11;478
12;484
13;489
14;493
15;493
0;489
1;489
2;491
3;490
4;484
5;479
6;473
7;472
8;474
9;475
10;478
11;482
12;483
13;481
14;483
15;486
0;487
1;485
2;482
3;480
4;480
5;480
6;480
7;483
8;481
9;480
10;483
11;484
12;488
13;492
14;495
15;499
0;500
1;499
2;500
3;502
4;501
5;501
6;503
7;503
8;503
9;503
10;499
11;495
12;491
13;487
14;483
15;478
0;476
1;473
2;470
3;469
4;467
5;468
6;472
7;479
8;484
9;484
10;486
11;488
12;489
13;491
14;492
15;495
0;496
1;496
2;495
3;495
4;495
5;494
6;493
7;491
8;489
9;486
10;484
11;483
12;484
13;486
14;489
15;493
0;496
1;500
2;503
3;506
4;511
5;512
6;512
7;510
8;508
9;509
10;508
11;512
12;512
13;513
14;515
15;516
0;514
1;513
2;515
3;518
4;519
5;517
6;507
7;499
8;492
9;490
10;494
11;491
12;488
13;489
14;491
15;498
0;507
1;511
2;511
3;506
4;502
5;498
6;496
7;495
8;493
9;492
10;492
11;492
12;494
13;494
14;496
15;499
0;501
1;502
2;508
3;516
4;524
5;524
6;524
7;522
8;519
9;516
10;512
11;510
12;505
13;504
14;501
15;500
0;502
1;503
2;506
3;508
4;512
5;518
6;520
7;518
8;512
9;514
10;514
11;513
12;514
13;515
14;513
15;513
0;514
1;516
2;518
3;519
4;519
5;519
6;518
7;515
8;513
9;511
10;508
11;506
12;504
13;505
14;509
15;512
0;516
1;519
2;525
3;531
4;536
5;539
6;538
7;533
8;527
9;522
10;515
11;509
12;504
13;502
14;503
15;504
0;501
1;496
2;495
3;501
4;508
5;515
6;521
7;521
8;517
9;510
10;501
11;493
12;489
13;485
14;484
15;488
0;495
1;508
2;520
3;532
4;539
5;539
6;530
7;515
8;502
9;495
10;505
11;521
12;530
13;540
14;549
15;550
0;548
1;547
2;545
3;542
4;539
5;534
6;530
7;527
8;524
9;525
10;525
11;526
12;526
13;519
14;512
15;508
0;509
1;512
2;514
3;515
4;512
5;510
6;510
7;510
8;508
9;505
10;506
11;513
12;515
13;513
14;511
15;506
0;501
1;495
2;492
3;493
4;494
5;497
6;501
7;503
8;504
9;505
10;503
11;501
12;502
13;501
14;499
15;497
0;496
1;496
2;497
3;498
4;502
5;504
6;506
7;507
8;508
9;509
10;510
11;510
12;509
13;507
14;505
15;499
0;499
1;498
2;495
3;495
4;496
5;499
6;504
7;510
8;513
9;519
10;528
11;532
12;532
13;531
14;529
15;525
0;516
1;504
2;502
3;501
4;499
5;499
6;495
7;492
8;492
9;496
10;500
11;505
12;509
13;512
14;515
15;514
0;510
1;508
2;508
3;511
4;513
5;515
6;515
7;515
8;515
9;515
10;515
11;518
12;521
13;526
14;530
15;536
0;543
1;547
2;552
3;560
4;574
5;590
6;608
7;629
8;650
9;672
10;692
11;705
12;716
13;728
14;740
15;753
0;763
1;769
2;779
3;790
4;790
5;783
6;770
7;753
8;738
9;725
10;709
11;686
12;657
13;622
14;588
15;551
0;509
1;470
2;434
3;404
4;379
5;362
6;352
7;343
8;342
9;345
10;355
11;366
12;377
13;388
14;391
15;388
0;381
1;377
2;378
3;386
4;399
5;410
6;422
7;427
8;433
9;439
10;446
11;455
12;462
13;467
14;472
15;476
0;480
1;484
2;485
3;484
4;483
5;484
6;487
7;491
8;495
9;495
10;495
11;497
12;499
13;500
14;501
15;501
0;502
1;501
2;499
3;500
4;501
5;501
6;499
7;496
8;498
9;502
10;506
11;509
12;513
13;516
14;517
15;517
0;515
1;512
2;511
3;510
4;509
5;508
6;508
7;510
8;512
9;515
10;519
11;523
12;523
13;521
14;521
15;520
0;519
1;518
2;516
3;515
4;512
5;510
6;508
7;508
8;510
9;514
10;519
11;524
12;528
13;533
14;536
15;535
0;524
1;516
2;514
3;512
4;509
5;506
6;507
7;508
8;512
9;520
10;522
11;518
12;518
13;518
14;510
15;507
0;505
1;505
2;507
3;508
4;518
5;531
6;538
7;539
8;534
9;529
10;530
11;533
12;538
13;540
14;537
15;535
0;536
1;534
2;534
3;534
4;531
5;528
6;527
7;526
8;524
9;521
10;521
11;520
12;522
13;524
14;527
15;527
0;531
1;534
2;534
3;532
4;534
5;534
6;532
7;532
8;532
9;531
10;531
11;531
12;531
13;531
14;533
15;534
0;536
1;537
2;542
3;545
4;547
5;546
6;542
7;540
8;543
9;548
10;553
11;553
12;555
13;556
14;550
15;544
0;543
1;545
2;547
3;549
4;552
5;555
6;555
7;554
8;553
9;550
10;548
11;549
12;553
13;553
14;547
15;546
0;545
1;547
2;552
3;555
4;558
5;559
6;558
7;557
8;553
9;549
10;546
11;543
12;537
13;534
14;536
15;542
0;546
1;546
2;544
3;542
4;541
5;539
6;536
7;535
8;531
9;528
10;524
11;521
12;518
13;516
14;513
15;512
0;511
1;509
2;509
3;511
4;511
5;510
6;507
7;504
8;499
9;497
10;494
11;488
12;483
13;483
14;483
15;476
0;464
1;453
2;451
3;453
4;459
5;462
6;462
7;463
8;470
9;476
10;477
11;477
12;470
13;458
14;448
15;441
0;439
1;432
2;426
3;432
4;445
5;459
6;465
7;467
8;467
9;463
10;460
11;457
12;459
13;461
14;457
15;455
0;452
1;450
2;452
3;457
4;460
5;462
6;460
7;458
8;457
9;455
10;453
11;453
12;454
13;454
14;453
15;455
0;456
1;459
2;460
3;460
4;463
5;463
6;464
7;463
8;460
9;459
10;460
11;460
12;460
13;460
14;460
15;462
0;465
1;470
2;472
3;475
4;474
5;473
6;473
7;473
8;472
9;471
10;468
11;465
12;464
13;465
14;465
15;464
0;465
1;467
2;469
3;475
4;477
5;480
6;483
7;477
8;473
9;473
10;474
11;476
12;476
13;475
14;472
15;471
0;470
1;470
2;471
3;471
4;472
5;476
6;478
7;480
8;488
9;490
10;491
11;494
12;497
13;499
14;498
15;495
0;491
1;487
2;489
3;492
4;495
5;498
6;502
7;507
8;509
9;509
10;508
11;505
12;504
13;504
14;504
15;505
0;503
1;498
2;492
3;487
4;488
5;489
6;489
7;489
8;488
9;487
10;487
11;483
12;480
13;476
14;476
15;478
0;477
1;477
2;478
3;478
4;480
5;484
6;489
7;489
8;487
9;486
10;489
11;487
12;479
13;479
14;481
15;481
0;483
1;484
2;482
3;483
4;490
5;499
6;510
7;515
8;515
9;513
10;515
11;514
12;512
13;511
14;510
15;510
0;507
1;504
2;499
3;498
4;494
5;492
6;492
7;494
8;496
9;499
10;500
11;502
12;506
13;508
14;508
15;508
0;504
1;500
2;497
3;496
4;493
5;494
6;499
7;503
8;499
9;499
10;497
11;499
12;502
13;505
14;509
15;512
0;516
1;514
2;509
3;506
4;503
5;501
6;499
7;499
8;501
9;504
10;505
11;506
12;507
13;511
14;514
15;518
0;519
1;519
2;516
3;513
4;511
5;508
6;505
7;502
8;499
9;500
10;502
11;504
12;504
13;505
14;507
15;507
0;506
1;504
2;500
3;494
4;487
5;482
6;477
7;474
8;473
9;474
10;478
11;481
12;486
13;490
14;491
15;493
0;497
1;499
2;502
3;501
4;501
5;499
6;497
7;497
8;497
9;497
10;494
11;489
12;483
13;477
14;478
15;483
0;486
1;488
2;490
3;488
4;482
5;477
6;477
7;478
8;479
9;479
10;479
11;481
12;484
13;488
14;492
15;496
0;498
1;497
2;496
3;498
4;496
5;495
6;493
7;491
8;490
9;488
10;489
11;490
12;493
13;492
14;489
15;488
0;488
1;491
2;498
3;507
4;513
5;513
6;511
7;506
8;503
9;500
10;498
11;498
12;499
13;499
14;500
15;500
0;497
1;499
2;504
3;509
4;510
5;509
6;507
7;505
8;504
9;506
10;508
11;514
12;518
13;523
14;524
15;524
0;527
1;533
2;540
3;545
4;554
5;563
6;575
7;589
8;601
9;616
10;636
11;653
12;665
13;676
14;688
15;704
0;713
1;722
2;735
3;744
4;749
5;746
6;737
7;723
8;707
9;679
10;645
11;619
12;599
13;584
14;562
15;537
0;511
1;481
2;453
3;426
4;399
5;378
6;359
7;342
8;332
9;323
10;327
11;342
12;356
13;369
14;382
15;389
0;395
1;400
2;406
3;414
4;420
5;426
6;433
7;440
8;445
9;446
10;447
11;450
12;450
13;454
14;458
15;461
0;464
1;470
2;476
3;482
4;487
5;490
6;493
7;496
8;499
9;502
10;508
11;511
12;509
13;501
14;498
15;500
0;502
1;504
2;511
3;514
4;519
5;522
6;527
7;531
8;534
9;536
10;536
11;542
12;550
13;546
14;534
15;523
0;512
1;503
2;500
3;496
4;496
5;498
6;500
7;500
8;505
9;510
10;512
11;513
12;514
13;512
14;509
15;509
0;510
1;512
2;520
3;529
4;533
5;535
6;536
7;533
8;524
9;522
10;524
11;524
12;525
13;526
14;525
15;525
0;525
1;524
2;526
3;527
4;530
5;532
6;536
7;539
8;541
9;543
10;547
11;551
12;554
13;555
14;555
15;553
0;547
1;542
2;536
3;535
4;534
5;536
6;540
7;544
8;548
9;547
10;546
11;546
12;544
13;542
14;541
15;543
0;543
1;540
2;539
3;539
4;543
5;548
6;552
7;551
8;547
9;540
10;543
11;547
12;548
13;546
14;540
15;531
0;528
1;530
2;534
3;537
4;543
5;547
6;550
7;550
8;548
9;547
10;544
11;545
12;555
13;562
14;557
15;547
0;540
1;535
2;536
3;538
4;538
5;542
6;547
7;553
8;555
9;555
10;558
11;559
12;563
13;567
14;567
15;566
0;566
1;564
2;562
3;560
4;558
5;556
6;557
7;559
8;560
9;562
10;568
11;571
12;570
13;569
14;567
15;565
0;564
1;561
2;556
3;551
4;548
5;546
6;547
7;545
8;545
9;545
10;548
11;550
12;551
13;553
14;554
15;551
0;548
1;544
2;540
3;538
4;540
5;545
6;544
7;536
8;527
9;527
10;528
11;524
12;521
13;517
14;511
15;512
0;510
1;510
2;510
3;511
4;512
5;508
6;496
7;489
8;487
9;488
10;488
11;489
12;491
13;491
14;494
15;495
0;497
1;498
2;495
3;491
4;483
5;475
6;468
7;464
8;462
9;462
10;464
11;465
12;467
13;469
14;470
15;472
0;472
1;467
2;465
3;463
4;461
5;456
6;454
7;453
8;455
9;460
10;465
11;469
12;473
13;473
14;471
15;468
0;470
1;472
2;473
3;472
4;469
5;462
6;461
7;463
8;464
9;467
10;473
11;475
12;471
13;470
14;471
15;475
0;479
1;484
2;487
3;486
4;482
5;478
6;475
7;476
8;478
9;478
10;476
11;476
12;478
13;480
14;481
15;484
0;486
1;487
2;489
3;489
4;489
5;488
6;487
7;484
8;481
9;480
10;478
11;480
12;482
13;484
14;485
15;488
0;492
1;492
2;495
3;495
4;489
5;484
6;479
7;478
8;477
9;475
10;474
11;475
12;480
13;487
14;489
15;492
0;496
1;499
2;500
3;502
4;499
5;499
6;499
7;499
8;498
9;496
10;492
11;486
12;483
13;485
14;486
15;486
0;487
1;488
2;487
3;488
4;490
5;492
6;492
7;492
8;494
9;495
10;496
11;497
12;497
13;496
14;496
15;496
0;497
1;498
2;502
3;504
4;505
5;505
6;505
7;507
8;509
9;506
10;502
11;502
12;502
13;498
14;496
15;497
0;501
1;506
2;512
3;515
4;516
5;515
6;512
7;509
8;508
9;507
10;503
11;501
12;502
13;505
14;508
15;509
0;510
1;508
2;505
3;504
4;502
5;500
6;500
7;498
8;499
9;496
10;492
11;487
12;486
13;489
14;489
15;492
0;495
1;500
2;506
3;506
4;504
5;500
6;498
7;497
8;496
9;497
10;502
11;505
12;506
13;504
14;499
15;498
0;498
1;498
2;499
3;500
4;502
5;503
6;506
7;505
8;504
9;504
10;503
11;503
12;500
13;499
14;501
15;502
0;504
1;507
2;508
3;511
4;513
5;516
6;518
7;520
8;521
9;519
10;516
11;515
12;514
13;511
14;510
15;512
0;511
1;512
2;512
3;510
4;507
5;508
6;512
7;517
8;521
9;524
10;526
11;529
12;531
13;530
14;526
15;524
0;523
1;520
2;519
3;521
4;520
5;521
6;523
7;520
8;517
9;514
10;510
11;506
12;503
13;498
14;493
15;491
0;489
1;488
2;484
3;485
4;492
5;496
6;501
7;505
8;507
9;510
10;510
11;508
12;508
13;511
14;510
15;507
0;503
1;499
2;494
3;485
4;481
5;483
6;487
7;492
8;498
9;501
10;502
11;503
12;500
13;496
14;493
15;490
0;487
1;489
2;491
3;490
4;494
5;501
6;506
7;507
8;508
9;508
10;507
11;509
12;511
13;507
14;504
15;499
0;496
1;493
2;495
3;496
4;494
5;495
6;496
7;495
8;495
9;498
10;503
11;507
12;508
13;508
14;505
15;502
0;500
1;500
2;501
3;500
4;499
5;501
6;504
7;507
8;511
9;513
10;515
11;517
12;522
13;526
14;529
15;535
0;537
1;539
2;538
3;537
4;540
5;543
6;549
7;564
8;579
9;596
10;615
11;636
12;656
13;669
14;683
15;699
0;711
1;718
2;723
3;729
4;735
5;735
6;732
7;726
8;715
9;701
10;687
11;672
12;652
13;631
14;608
15;579
0;548
1;516
2;484
3;450
4;417
5;389
6;366
7;348
8;337
9;332
10;333
11;338
12;345
13;352
14;361
15;371
0;383
1;396
2;400
3;400
4;402
5;402
6;403
7;411
8;416
9;424
10;430
11;436
12;443
13;449
14;456
15;460
0;468
1;473
2;474
3;473
4;474
5;477
6;480
7;483
8;488
9;489
10;493
11;498
12;504
13;506
14;508
15;509
0;507
1;505
2;503
3;504
4;507
5;511
6;513
7;512
8;508
9;506
10;504
11;500
12;499
13;501
14;502
15;505
0;509
1;512
2;513
3;514
4;515
5;515
6;512
7;510
8;509
9;508
10;511
11;515
12;517
13;521
14;524
15;525
0;520
1;515
2;511
3;508
4;508
5;506
6;502
7;502
8;502
9;501
10;504
11;508
12;508
13;512
14;515
15;514
0;513
1;515
2;515
3;514
4;515
5;516
6;516
7;516
8;515
9;518
10;520
11;523
12;525
13;524
14;517
15;511
0;513
1;513
2;514
3;518
4;521
5;523
6;523
7;522
8;521
9;520
10;520
11;524
12;526
13;526
14;526
15;528
0;529
1;528
2;527
3;526
4;527
5;527
6;526
7;526
8;525
9;523
10;519
11;518
12;522
13;527
14;534
15;534
0;529
1;527
2;525
3;527
4;532
5;532
6;532
7;529
8;528
9;531
10;533
11;534
12;536
13;540
14;542
15;544
0;548
1;550
2;553
3;556
4;560
5;561
6;561
7;555
8;550
9;546
10;542
11;542
12;545
13;549
14;551
15;555
0;555
1;552
2;551
3;554
4;559
5;563
6;569
7;573
8;572
9;569
10;563
11;556
12;554
13;551
14;545
15;544
0;549
1;556
2;561
3;565
4;564
5;565
6;564
7;563
8;562
9;559
10;556
11;550
12;542
13;539
14;537
15;536
0;535
1;534
2;535
3;539
4;538
5;540
6;540
7;540
8;538
9;536
10;534
11;531
12;528
13;525
14;519
15;512
0;508
1;507
2;507
3;505
4;502
5;499
6;499
7;498
8;492
9;491
10;492
11;491
12;489
13;487
14;489
15;493
0;496
1;493
2;489
3;486
4;484
5;485
6;486
7;487
8;486
9;484
10;480
11;476
12;473
13;471
14;467
15;464
0;465
1;467
2;468
3;470
4;472
5;474
6;477
7;480
8;483
9;484
10;480
11;478
12;475
13;472
14;465
15;457
0;449
1;436
2;428
3;427
4;431
5;438
6;451
7;466
8;477
9;480
10;480
11;475
12;474
13;473
14;472
15;472
0;471
1;467
2;466
3;469
4;470
5;468
6;468
7;470
8;474
9;480
10;479
11;480
12;480
13;477
14;476
15;470
0;473
1;473
2;471
3;467
4;466
5;466
6;469
7;472
8;475
9;476
10;476
11;474
12;471
13;471
14;472
15;470
0;469
1;469
2;470
3;472
4;473
5;473
6;473
7;475
8;477
9;477
10;478
11;479
12;481
13;483
14;485
15;486
0;487
1;489
2;491
3;493
4;492
5;487
6;484
7;484
8;486
9;487
10;486
11;481
12;477
13;475
14;474
15;475
0;474
1;474
2;473
3;472
4;474
5;477
6;478
7;477
8;477
9;477
10;480
11;484
12;487
13;488
14;487
15;484
0;481
1;478
2;475
3;474
4;477
5;478
6;480
7;480
8;481
9;487
10;493
11;496
12;496
13;494
14;494
15;494
0;494
1;490
2;486
3;487
4;489
5;488
6;489
7;495
8;498
9;498
10;501
11;504
12;502
13;500
14;496
15;495
0;495
1;494
2;492
3;489
4;487
5;487
6;489
7;492
8;494
9;496
10;497
11;498
12;501
13;503
14;505
15;505
0;505
1;499
2;494
3;495
4;497
5;494
6;487
7;486
8;491
9;494
10;496
11;503
12;510
13;514
14;513
15;507
0;507
1;509
2;507
3;504
4;500
5;497
6;491
7;483
8;485
9;488
10;488
11;496
12;504
13;512
14;518
15;518
0;515
1;511
2;503
3;499
4;499
5;499
6;499
7;499
8;499
9;500
10;502
11;503
12;504
13;507
14;508
15;506
0;507
1;510
2;509
3;505
4;502
5;500
6;499
7;499
8;498
9;498
10;499
11;502
12;505
13;511
14;515
15;516
0;514
1;514
2;516
3;519
4;519
5;517
6;516
7;517
8;515
9;514
10;515
11;519
12;525
13;528
14;529
15;529
0;530
1;532
2;532
3;530
4;525
5;521
6;516
7;514
8;513
9;515
10;517
11;518
12;520
13;525
14;527
15;528
0;530
1;535
2;537
3;537
4;535
5;529
6;523
7;520
8;518
9;515
10;511
11;510
12;514
13;515
14;515
15;517
0;518
1;519
2;518
3;517
4;516
5;516
6;516
7;515
8;510
9;504
10;500
11;500
12;500
13;499
14;501
15;505
0;509
1;513
2;516
3;515
4;516
5;515
6;514
7;512
8;510
9;509
10;510
11;511
12;510
13;512
14;514
15;514
0;514
1;518
2;521
3;520
4;524
5;530
6;530
7;525
8;515
9;508
10;500
11;499
12;496
13;502
14;514
15;524
0;532
1;535
2;536
3;536
4;536
5;537
6;536
7;531
8;528
9;527
10;524
11;523
12;521
13;519
14;517
15;518
0;523
1;526
2;528
3;530
4;532
5;534
6;534
7;531
8;529
9;529
10;528
11;526
12;525
13;525
14;527
15;529
0;533
1;538
2;543
3;549
4;556
5;563
6;571
7;580
8;588
9;597
10;608
11;618
12;630
13;644
14;658
15;674
0;690
1;705
2;720
3;733
4;743
5;750
6;758
7;763
8;764
9;761
10;761
11;754
12;738
13;720
14;703
15;685
0;666
1;645
2;622
3;597
4;571
5;541
6;508
7;475
8;443
9;415
10;393
11;375
12;363
13;357
14;357
15;361
0;366
1;372
2;379
3;383
4;388
5;398
6;407
7;414
8;420
9;427
10;433
11;440
12;446
13;454
14;463
15;470
0;476
1;478
2;479
3;482
4;483
5;487
6;492
7;496
8;503
9;509
10;511
11;512
12;512
13;511
14;511
15;514
0;516
1;513
2;513
3;514
4;515
5;516
6;519
7;522
8;524
9;526
10;526
11;525
12;526
13;524
14;522
15;521
0;523
1;523
2;525
3;530
4;532
5;535
6;537
7;539
8;538
9;540
10;543
11;543
12;541
13;543
14;545
15;544
0;544
1;544
2;542
3;533
4;530
5;534
6;536
7;543
8;547
9;548
10;547
11;546
12;546
13;545
14;547
15;546
0;544
1;543
2;542
3;540
4;537
5;536
6;539
7;543
8;548
9;551
10;554
11;556
12;554
13;552
14;551
15;548
0;545
1;544
2;541
3;537
4;539
5;543
6;545
7;547
8;550
9;552
10;554
11;556
12;556
13;555
14;554
15;554
0;553
1;554
2;556
3;559
4;557
5;556
6;558
7;559
8;560
9;566
10;569
11;569
12;569
13;568
14;565
15;560
0;557
1;557
2;559
3;563
4;566
5;565
6;563
7;561
8;561
9;560
10;559
11;559
12;559
13;560
14;562
15;559
0;557
1;560
2;564
3;565
4;563
5;563
6;564
7;569
8;575
9;581
10;584
11;588
12;590
13;589
14;593
15;593
0;589
1;588
2;587
3;585
4;582
5;582
6;581
7;578
8;579
9;579
10;580
11;583
12;586
13;588
14;589
15;589
0;589
1;588
2;588
3;585
4;581
5;579
6;578
7;577
8;578
9;580
10;582
11;581
12;582
13;583
14;583
15;585
0;583
1;578
2;575
3;574
4;571
5;568
6;568
7;567
8;562
9;556
10;553
11;551
12;551
13;553
14;552
15;551
0;552
1;552
2;550
3;547
4;545
5;544
6;543
7;544
8;539
9;537
10;534
11;531
12;529
13;530
14;530
15;529
0;528
1;525
2;519
3;510
4;502
5;495
6;491
7;489
8;489
9;492
10;494
11;497
12;503
13;507
14;505
15;501
0;497
1;497
2;497
3;496
4;495
5;494
6;493
7;491
8;493
9;495
10;495
11;494
12;498
13;499
14;501
15;505
0;506
1;503
2;498
3;495
4;491
5;491
6;492
7;492
8;489
9;488
10;490
11;493
12;497
13;499
14;500
15;504
0;509
1;513
2;515
3;514
4;509
5;507
6;507
7;511
8;515
9;511
10;501
11;492
12;489
13;489
14;492
15;491
0;491
1;495
2;498
3;500
4;502
5;504
6;504
7;502
8;499
9;496
10;494
11;492
12;492
13;493
14;496
15;497
0;497
1;496
2;497
3;499
4;501
5;503
6;505
7;509
8;509
9;506
10;502
11;501
12;502
13;500
14;498
15;500
0;503
1;505
2;510
3;514
4;515
5;515
6;514
7;511
8;509
9;511
10;514
11;516
12;517
13;516
14;513
15;511
0;511
1;512
2;513
3;513
4;515
5;516
6;515
7;513
8;510
9;508
10;506
11;506
12;507
13;506
14;504
15;505
0;507
1;510
2;513
3;515
4;516
5;516
6;518
7;514
8;512
9;512
10;512
11;512
12;512
13;512
14;510
15;504
0;502
1;507
2;513
3;522
4;526
5;529
6;531
7;531
8;532
9;530
10;527
11;523
12;522
13;526
14;529
15;525
0;525
1;525
2;523
3;523
4;521
5;514
6;509
7;507
8;506
9;504
10;505
11;508
12;511
13;512
14;514
15;514
0;513
1;507
2;499
3;494
4;499
5;506
6;507
7;509
8;512
9;513
10;512
11;512
12;511
13;509
14;508
15;509
0;512
1;515
2;519
3;520
4;520
5;523
6;525
7;523
8;524
9;527
10;530
11;528
12;524
13;523
14;520
15;518
0;514
1;515
2;516
3;516
4;519
5;525
6;536
7;548
8;555
9;561
10;560
11;546
12;530
13;519
14;514
15;514
0;516
1;515
2;511
3;508
4;510
5;512
6;516
7;521
8;524
9;526
10;527
11;528
12;525
13;518
14;510
15;505
0;500
1;499
2;498
3;502
4;505
5;507
6;506
7;508
8;508
9;509
10;512
11;513
12;517
13;516
14;514
15;513
0;513
1;513
2;513
3;515
4;521
5;525
6;528
7;532
8;534
9;538
10;540
11;541
12;541
13;540
14;539
15;538
0;535
1;531
2;530
3;529
4;529
5;527
6;523
7;522
8;524
9;527
10;530
11;530
12;528
13;525
14;523
15;522
0;520
1;517
2;513
3;510
4;508
5;507
6;508
7;510
8;511
9;511
10;512
11;514
12;515
13;516
14;515
15;512
0;511
1;508
2;508
3;508
4;507
5;506
6;506
7;508
8;508
9;509
10;513
11;517
12;518
13;519
14;518
15;516
0;514
1;513
2;511
3;506
4;501
5;500
6;499
7;497
8;494
9;495
10;498
11;500
12;503
13;505
14;507
15;506
0;505
1;502
2;499
3;499
4;499
5;496
6;496
7;497
8;499
9;501
10;502
11;502
12;503
13;504
14;504
15;506
0;506
1;506
2;507
3;507
4;506
5;508
6;509
7;509
8;505
9;501
10;497
11;496
12;499
13;501
14;503
15;508
0;510
1;508
2;507
3;504
4;500
5;498
6;498
7;499
8;503
9;506
10;510
11;517
12;527
13;535
14;543
15;550
0;555
1;562
2;572
3;583
4;596
5;609
6;623
7;638
8;656
9;674
10;692
11;707
12;721
13;735
14;745
15;753
0;761
1;769
2;774
3;772
4;764
5;751
6;730
7;709
8;689
9;668
10;644
11;616
12;584
13;554
14;524
15;491
0;456
1;425
2;396
3;371
4;353
5;342
6;335
7;334
8;339
9;343
10;347
11;354
12;360
13;368
14;375
15;384
0;393
1;400
2;406
3;411
4;414
5;416
6;419
7;421
8;424
9;429
10;435
11;442
12;449
13;453
14;458
15;465
0;472
1;478
2;483
3;487
4;491
5;494
6;496
7;499
8;498
9;496
10;494
11;492
12;487
13;486
14;487
15;491
0;494
1;496
2;497
3;494
4;495
5;496
6;499
7;502
8;504
9;506
10;509
11;511
12;511
13;510
14;511
15;512
0;513
1;517
2;520
3;521
4;519
5;516
6;515
7;515
8;509
9;505
10;504
11;501
12;501
13;501
14;505
15;508
0;512
1;516
2;521
3;526
4;530
5;531
6;529
7;526
8;526
9;528
10;526
11;523
12;520
13;517
14;515
15;515
0;515
1;516
2;520
3;522
4;522
5;522
6;523
7;523
8;523
9;523
10;525
11;524
12;524
13;525
14;526
15;528
0;531
1;531
2;533
3;534
4;532
5;530
6;530
7;529
8;531
9;532
10;531
11;529
12;524
13;519
14;516
15;515
0;518
1;519
2;521
3;526
4;529
5;531
6;533
7;534
8;532
9;533
10;534
11;534
12;531
13;529
14;528
15;529
0;531
1;533
2;535
3;537
4;540
5;542
6;543
7;543
8;542
9;540
10;537
11;535
12;534
13;533
14;532
15;535
0;538
1;542
2;545
3;550
4;555
5;556
6;559
7;559
8;556
9;552
10;549
11;550
12;550
13;551
14;551
15;548
0;547
1;551
2;554
3;553
4;549
5;551
6;554
7;559
8;563
9;559
10;557
11;556
12;547
13;541
14;537
15;540
0;542
1;543
2;543
3;543
4;546
5;551
6;554
7;552
8;551
9;551
10;547
11;540
12;536
13;534
14;532
15;531
0;530
1;528
2;526
3;527
4;524
5;525
6;526
7;529
8;527
9;525
10;524
11;522
12;519
13;517
14;515
15;510
0;506
1;502
2;500
3;498
4;498
5;498
6;498
7;499
8;499
9;499
10;495
11;491
12;487
13;483
14;476
15;469
0;465
1;465
2;462
3;464
4;466
5;465
6;468
7;470
8;466
9;466
10;464
11;462
12;464
13;466
14;463
15;459
0;456
1;455
2;454
3;454
4;455
5;459
6;461
7;462
8;463
9;462
10;463
11;462
12;462
13;460
14;460
15;460
0;459
1;455
2;449
3;443
4;440
5;441
6;446
7;452
8;454
9;458
10;462
11;465
12;468
13;469
14;468
15;467
0;469
1;465
2;457
3;453
4;454
5;451
6;450
7;454
8;458
9;462
10;466
11;469
12;470
13;472
14;472
15;472
0;472
1;471
2;470
3;471
4;468
5;464
6;467
7;471
8;471
9;471
10;472
11;475
12;478
13;479
14;479
15;479
0;476
1;476
2;472
3;472
4;474
5;473
6;472
7;469
8;472
9;476
10;478
11;481
12;484
13;485
14;486
15;487
0;485
1;480
2;478
3;475
4;475
5;479
6;480
7;477
8;473
9;472
10;474
11;476
12;475
13;475
14;479
15;481
0;481
1;479
2;477
3;476
4;474
5;473
6;473
7;474
8;475
9;473
10;475
11;479
12;482
13;486
14;487
15;487
0;487
1;486
2;484
3;483
4;482
5;483
6;483
7;483
8;486
9;487
10;487
11;489
12;489
13;491
14;491
15;489
0;489
1;489
2;490
3;489
4;484
5;484
6;484
7;483
8;484
9;487
10;493
11;497
12;498
13;499
14;500
15;498
0;497
1;496
2;495
3;495
4;495
5;494
6;494
7;490
8;484
9;480
10;479
11;482
12;485
13;487
14;493
15;500
0;504
1;503
2;501
3;501
4;500
5;496
6;492
7;492
8;494
9;496
10;498
11;495
12;489
13;487
14;489
15;495
0;499
1;498
2;494
3;492
4;493
5;495
6;492
7;488
8;486
9;486
10;486
11;487
12;490
13;493
14;495
15;498
0;501
1;502
2;499
3;497
4;498
5;498
6;499
7;499
8;500
9;495
10;489
11;487
12;489
13;491
14;494
15;499
0;503
1;507
2;509
3;509
4;510
5;508
6;506
7;504
8;499
9;495
10;491
11;488
12;488
13;487
14;489
15;493
0;494
1;495
2;496
3;498
4;501
5;502
6;502
7;500
8;500
9;499
10;500
11;501
12;502
13;501
14;501
15;502
0;505
1;507
2;509
3;511
4;513
5;515
6;517
7;514
8;512
9;509
10;507
11;506
12;506
13;506
14;505
15;507
0;507
1;507
2;510
3;519
4;526
5;528
6;529
7;527
8;524
9;521
10;518
11;514
12;511
13;508
14;505
15;504
0;502
1;500
2;499
3;500
4;502
5;499
6;499
7;497
8;494
9;491
10;489
11;485
12;479
13;477
14;479
15;483
0;488
1;493
2;497
3;500
4;502
5;501
6;498
7;495
8;489
9;485
10;480
11;475
12;474
13;476
14;482
15;487
0;487
1;492
2;499
3;502
4;500
5;496
6;492
7;489
8;491
9;492
10;494
11;496
12;495
13;493
14;487
15;483
0;483
1;482
2;484
3;485
4;488
5;493
6;496
7;498
8;499
9;498
10;499
11;499
12;498
13;496
14;495
15;496
0;495
1;495
2;495
3;495
4;494
5;495
6;496
7;496
8;496
9;498
10;497
11;495
12;493
13;492
14;490
15;488
0;488
1;489
2;492
3;495
4;495
5;495
6;494
7;491
8;492
9;490
10;491
11;492
12;492
13;494
14;498
15;502
0;508
1;508
2;506
3;510
4;518
5;528
6;542
7;558
8;575
9;595
10;610
11;623
12;636
13;654
14;672
15;688
0;700
1;711
2;719
3;728
4;737
5;744
6;750
7;755
8;755
9;748
10;734
11;718
12;698
13;679
14;655
15;629
0;601
1;570
2;539
3;505
4;469
5;437
6;409
7;382
8;360
9;346
10;339
11;336
12;335
13;334
14;337
15;339
0;345
1;354
2;362
3;368
4;374
5;382
6;388
7;395
8;402
9;411
10;422
11;431
12;437
13;441
14;446
15;450
0;452
1;454
2;454
3;454
4;455
5;456
6;457
7;459
8;463
9;468
10;472
11;477
12;480
13;483
14;484
15;487
0;489
1;487
2;484
3;483
4;480
5;475
6;476
7;481
8;482
9;486
10;495
11;499
12;503
13;505
14;506
15;499
0;495
1;491
2;488
3;486
4;486
5;487
6;489
7;491
8;495
9;497
10;501
11;504
12;504
13;503
14;503
15;503
0;502
1;502
2;500
3;497
4;497
5;498
6;497
7;498
8;501
9;504
10;510
11;516
12;519
13;522
14;520
15;522
0;519
1;517
2;516
3;516
4;516
5;513
6;511
7;510
8;510
9;510
10;508
11;510
12;512
13;517
14;521
15;524
0;523
1;519
2;515
3;510
4;504
5;501
6;496
7;493
8;496
9;500
10;504
11;507
12;510
13;518
14;520
15;519
0;520
1;524
2;524
3;521
4;518
5;515
6;513
7;511
8;508
9;509
10;509
11;511
12;512
13;514
14;519
15;521
0;526
1;529
2;525
3;522
4;522
5;521
6;519
7;517
8;517
9;524
10;525
11;527
12;528
13;527
14;529
15;532
0;535
1;536
2;538
3;538
4;536
5;534
6;530
7;529
8;530
9;531
10;534
11;535
12;539
13;541
14;542
15;545
0;545
1;547
2;549
3;549
4;547
5;547
6;548
7;546
8;541
9;539
10;539
11;542
12;546
13;548
14;548
15;549
0;556
1;560
2;559
3;556
4;550
5;550
6;548
7;546
8;545
9;546
10;544
11;544
12;542
13;543
14;540
15;541
0;543
1;545
2;544
3;543
4;541
5;537
6;532
7;530
8;527
9;523
10;520
11;518
12;517
13;516
14;516
15;513
0;511
1;509
2;504
3;499
4;496
5;495
6;495
7;494
8;491
9;486
10;481
11;481
12;480
13;477
14;476
15;476
0;475
1;478
2;482
3;485
4;486
5;487
6;488
7;484
8;478
9;470
10;464
11;457
12;453
13;451
14;445
15;442
0;446
1;454
2;461
3;466
4;466
5;462
6;459
7;455
8;451
9;449
10;450
11;448
12;447
13;454
14;460
15;461
0;461
1;460
2;460
3;463
4;463
5;460
6;459
7;458
8;458
9;458
10;457
11;458
12;459
13;458
14;457
15;458
0;462
1;464
2;467
3;470
4;472
5;475
6;478
7;479
8;475
9;470
10;468
11;465
12;461
13;458
14;457
15;456
0;457
1;459
2;460
3;462
4;465
5;467
6;469
7;470
8;470
9;470
10;470
11;467
12;467
13;468
14;469
15;469
0;467
1;466
2;468
3;471
4;474
5;477
6;477
7;476
8;475
9;473
10;471
11;471
12;471
13;467
14;462
15;460
0;461
1;464
2;467
3;470
4;471
5;473
6;478
7;480
8;480
9;480
10;480
11;480
12;480
13;479
14;475
15;468
0;466
1;469
2;472
3;473
4;475
5;477
6;481
7;485
8;488
9;491
10;494
11;495
12;497
13;500
14;498
15;496
0;497
1;493
2;487
3;485
4;485
5;484
6;484
7;484
8;484
9;484
10;487
11;489
12;491
13;490
14;488
15;483
0;479
1;478
2;476
3;478
4;482
5;484
6;486
7;487
8;490
9;490
10;491
11;492
12;491
13;491
14;490
15;488
0;487
1;487
2;489
3;490
4;490
5;491
6;490
7;492
8;495
9;499
10;504
11;508
12;509
13;504
14;500
15;497
0;495
1;494
2;494
3;495
4;496
5;500
6;503
7;505
8;510
9;514
10;518
11;521
12;520
13;515
14;505
15;500
0;498
1;496
2;495
3;494
4;496
5;496
6;498
7;497
8;495
9;501
10;510
11;520
12;524
13;529
14;533
15;523
0;513
1;505
2;499
3;496
4;491
5;488
6;487
7;488
8;493
9;497
10;502
11;502
12;502
13;506
14;511
15;512
0;511
1;509
2;506
3;498
4;494
5;492
6;491
7;490
8;492
9;495
10;498
11;502
12;502
13;503
14;505
15;508
0;510
1;508
2;505
3;504
4;502
5;500
6;498
7;495
8;491
9;487
10;484
11;482
12;484
13;487
14;493
15;499
0;503
1;505
2;509
3;511
4;514
5;518
6;516
7;511
8;510
9;512
10;512
11;513
12;510
13;510
14;512
15;513
0;512
1;509
2;506
3;504
4;499
5;495
6;493
7;490
8;490
9;493
10;499
11;502
12;504
13;510
14;511
15;507
0;502
1;500
2;499
3;497
4;494
5;489
6;483
7;479
8;479
9;483
10;486
11;488
12;487
13;487
14;487
15;486
0;488
1;487
2;483
3;480
4;479
5;478
6;478
7;476
8;473
9;471
10;468
11;472
12;477
13;478
14;481
15;484
0;487
1;485
2;483
3;481
4;480
5;481
6;478
7;475
8;475
9;472
10;471
11;471
12;471
13;469
14;470
15;473
0;476
1;482
2;486
3;487
4;488
5;486
6;485
7;485
8;483
9;483
10;480
11;478
12;479
13;481
14;486
15;491
0;491
1;489
2;491
3;496
4;497
5;498
6;498
7;496
8;493
9;492
10;492
11;489
12;490
13;495
14;499
15;500
0;499
1;501
2;504
3;506
4;505
5;500
6;496
7;493
8;486
9;480
10;480
11;478
12;480
13;486
14;492
15;499
0;504
1;510
2;513
3;516
4;522
5;530
6;537
7;550
8;563
9;572
10;583
11;598
12;616
13;635
14;656
15;675
0;690
1;705
2;719
3;733
4;746
5;755
6;758
7;761
8;758
9;750
10;741
11;731
12;712
13;696
14;680
15;662
0;641
1;619
2;594
3;566
4;534
5;500
6;468
7;438
8;409
9;386
10;368
11;353
12;342
13;337
14;338
15;342
0;351
1;359
2;369
3;381
4;388
5;398
6;404
7;406
8;409
9;414
10;421
11;429
12;438
13;443
14;446
15;450
0;455
1;462
2;470
3;472
4;473
5;478
6;482
7;484
8;484
9;483
10;484
11;486
12;488
13;491
14;495
15;502
0;509
1;518
2;524
3;527
4;528
5;527
6;519
7;510
8;504
9;502
10;499
11;497
12;494
13;494
14;496
15;497
0;498
1;498
2;500
3;501
4;505
5;510
6;510
7;509
8;510
9;510
10;513
11;516
12;518
13;518
14;514
15;511
0;508
1;511
2;514
3;516
4;519
5;524
6;529
7;537
8;544
9;545
10;540
11;534
12;528
13;525
14;521
15;517
0;516
1;517
2;517
3;516
4;515
5;520
6;523
7;526
8;533
9;537
10;539
11;538
12;537
13;532
14;533
15;531
0;531
1;527
2;524
3;524
4;527
5;529
6;532
7;535
8;535
9;536
10;537
11;535
12;534
13;533
14;528
15;527
0;527
1;529
2;531
3;535
4;537
5;541
6;536
7;536
8;538
9;540
10;540
11;541
12;541
13;539
14;535
15;531
0;531
1;531
2;533
3;536
4;540
5;542
6;541
7;545
8;549
9;550
10;550
11;545
12;541
13;537
14;536
15;537
0;537
1;536
2;537
3;538
4;541
5;543
6;545
7;549
8;554
9;557
10;557
11;556
12;556
13;558
14;561
15;563
0;560
1;555
2;553
3;554
4;554
5;554
6;557
7;561
8;565
9;569
10;571
11;571
12;572
13;573
14;574
15;573
0;571
1;568
2;566
3;568
4;571
5;569
6;566
7;564
8;563
9;563
10;565
11;567
12;567
13;565
14;565
15;568
0;568
1;568
2;568
3;567
4;563
5;558
6;554
7;548
8;543
9;537
10;536
11;536
12;534
13;542
14;540
15;540
0;537
1;536
2;532
3;532
4;531
5;529
6;526
7;526
8;527
9;527
10;527
11;527
12;528
13;528
14;527
15;525
0;521
1;518
2;515
3;511
4;509
5;507
6;504
7;504
8;503
9;500
10;498
11;497
12;500
13;501
14;499
15;498
0;498
1;498
2;498
3;495
4;490
5;490
6;492
7;489
8;487
9;488
10;491
11;492
12;494
13;494
14;494
15;495
0;491
1;487
2;491
3;491
4;489
5;488
6;485
7;478
8;476
9;474
10;471
11;472
12;472
13;473
14;477
15;482
0;484
1;485
2;486
3;485
4;480
5;476
6;474
7;474
8;477
9;480
10;483
11;490
12;497
13;501
14;502
15;500
0;498
1;495
2;493
3;493
4;492
5;492
6;490
7;489
8;488
9;489
10;491
11;493
12;495
13;497
14;501
15;499
0;497
1;497
2;500
3;500
4;500
5;502
6;503
7;499
8;496
9;496
10;496
11;496
12;499
13;503
14;504
15;505
0;506
1;507
2;508
3;508
4;509
5;508
6;505
7;498
8;495
9;492
10;490
11;490
12;491
13;496
14;499
15;502
0;508
1;512
2;514
3;515
4;514
5;510
6;505
7;502
8;497
9;492
10;493
11;494
12;496
13;499
14;500
15;502
0;503
1;505
2;508
3;510
4;512
5;511
6;512
7;515
8;515
9;515
10;515
11;515
12;512
13;512
14;513
15;513
0;513
1;512
2;512
3;511
4;512
5;512
6;511
7;512
8;513
9;507
10;502
11;501
12;501
13;504
14;506
15;509
0;515
1;519
2;521
3;523
4;526
5;528
6;527
7;525
8;522
9;518
10;512
11;508
12;503
13;500
14;499
15;501
0;504
1;508
2;512
3;514
4;516
5;520
6;524
7;525
8;523
9;521
10;520
11;519
12;519
13;518
14;516
15;516
0;516
1;519
2;521
3;524
4;525
5;523
6;523
7;524
8;522
9;521
10;521
11;518
12;514
13;511
14;508
15;505
0;505
1;507
2;507
3;509
4;512
5;513
6;517
7;521
8;524
9;528
10;530
11;531
12;528
13;526
14;524
15;523
0;524
1;522
2;516
3;511
4;512
5;515
6;515
7;516
8;517
9;517
10;515
11;512
12;508
13;507
14;509
15;511
0;514
1;514
2;521
3;525
4;525
5;526
6;522
7;515
8;508
9;504
10;500
11;497
12;497
13;496
14;498
15;500
0;502
1;504
2;507
3;508
4;512
5;513
6;518
7;518
8;518
9;516
10;514
11;512
12;507
13;505
14;508
15;512
0;514
1;516
2;519
3;522
4;525
5;528
6;532
7;533
8;534
9;535
10;536
11;534
12;532
13;529
14;526
15;523
0;521
1;520
2;521
3;525
4;530
5;534
6;536
7;538
8;543
9;544
10;542
11;537
12;533
13;530
14;523
15;512
0;503
1;496
2;492
3;491
4;490
5;492
6;494
7;494
8;495
9;494
10;497
11;499
12;499
13;496
14;495
15;497
0;494
1;486
2;485
3;486
4;488
5;489
6;490
7;490
8;492
9;497
10;497
11;499
12;499
13;500
14;501
15;501
0;500
1;496
2;495
3;495
4;497
5;499
6;500
7;501
8;504
9;505
10;508
11;508
12;509
13;511
14;513
15;514
0;515
1;514
2;511
3;505
4;503
5;506
6;507
7;506
8;502
9;504
10;507
11;509
12;508
13;504
14;499
15;499
0;496
1;491
2;487
3;489
4;488
5;488
6;493
7;496
8;498
9;504
10;506
11;510
12;512
13;511
14;509
15;508
0;507
1;503
2;501
3;502
4;504
5;504
6;504
7;507
8;509
9;513
10;519
11;524
12;532
13;543
14;556
15;569
0;581
1;597
2;616
3;635
4;654
5;673
6;689
7;702
8;716
9;726
10;734
11;743
12;757
13;764
14;769
15;770
0;767
1;756
2;736
3;713
4;691
5;670
6;649
7;626
8;600
9;572
10;541
11;504
12;469
13;438
14;409
15;386
0;370
1;358
2;348
3;343
4;339
5;334
6;332
7;336
8;342
9;347
10;351
11;358
12;367
13;377
14;385
15;392
0;400
1;407
2;412
3;417
4;422
5;426
6;430
7;433
8;437
9;441
10;446
11;451
12;457
13;466
14;473
15;476
0;478
1;480
2;482
3;481
4;480
5;480
6;480
7;481
8;482
9;481
10;487
11;491
12;494
13;494
14;495
15;496
0;496
1;495
2;495
3;492
4;494
5;495
6;496
7;495
8;494
9;494
10;497
11;501
12;505
13;509
14;511
15;514
0;518
1;521
2;523
3;519
4;516
5;515
6;512
7;507
8;504
9;501
10;497
11;496
12;500
13;507
14;511
15;515
0;517
1;519
2;518
3;514
4;509
5;505
6;503
7;504
8;505
9;510
10;516
11;516
12;516
13;517
14;521
15;524
0;525
1;526
2;528
3;530
4;530
5;526
6;522
7;519
8;510
9;504
10;499
11;499
12;501
13;501
14;505
15;505
0;510
1;517
2;525
3;529
4;529
5;530
6;527
7;522
8;518
9;514
10;513
11;512
12;511
13;512
14;512
15;512
0;514
1;516
2;523
3;528
4;529
5;529
6;528
7;526
8;524
9;521
10;520
11;521
12;523
13;524
14;527
15;528
0;530
1;532
2;535
3;537
4;537
5;539
6;542
7;543
8;542
9;540
10;539
11;538
12;536
13;535
14;533
15;535
0;538
1;540
2;543
3;543
4;543
5;548
6;552
7;554
8;555
9;555
10;553
11;553
12;554
13;553
14;552
15;551
0;550
1;551
2;551
3;553
4;556
5;560
6;564
7;569
8;575
9;579
10;576
11;571
12;565
13;563
14;560
15;556
0;554
1;555
2;555
3;556
4;559
5;556
6;551
7;548
8;547
9;544
10;539
11;533
12;527
13;521
14;518
15;515
0;513
1;513
2;510
3;508
4;510
5;512
6;513
7;513
8;511
9;509
10;505
11;502
12;499
13;493
14;489
15;486
0;484
1;484
2;485
3;485
4;486
5;488
6;491
7;492
8;493
9;490
10;485
11;480
12;476
13;472
14;469
15;467
0;464
1;463
2;464
3;464
4;468
5;471
6;474
7;478
8;480
9;481
10;480
11;475
12;471
13;466
14;459
15;453
0;450
1;450
2;449
3;451
4;453
5;455
6;460
7;465
8;470
9;470
10;473
11;473
12;468
13;467
14;464
15;465
0;463
1;460
2;458
3;455
4;454
5;458
6;459
7;459
8;459
9;458
10;456
11;455
12;456
13;454
14;454
15;457
0;460
1;462
2;462
3;463
4;463
5;465
6;468
7;472
8;476
9;479
10;481
11;483
12;485
13;486
14;484
15;478
0;472
1;468
2;468
3;468
4;467
5;468
6;471
7;473
8;476
9;480
10;483
11;486
12;487
13;486
14;484
15;484
0;483
1;484
2;485
3;486
4;483
5;481
6;484
7;487
8;488
9;489
10;491
11;494
12;499
13;500
14;497
15;495
0;495
1;496
2;495
3;492
4;488
5;486
6;487
7;487
8;483
9;488
10;493
11;495
12;492
13;493
14;494
15;493
0;491
1;490
2;492
3;493
4;491
5;491
6;490
7;492
8;494
9;495
10;499
11;500
12;502
13;503
14;502
15;501
0;498
1;497
2;498
3;499
4;502
5;503
6;502
7;503
8;502
9;500
10;499
11;503
12;507
13;509
14;510
15;509
0;507
1;503
2;501
3;501
4;498
5;499
6;502
7;506
8;509
9;513
10;517
11;519
12;522
13;526
14;527
15;524
0;520
1;512
2;505
3;502
4;503
5;505
6;507
7;505
8;503
9;503
10;504
11;507
12;512
13;518
14;522
15;524
0;526
1;523
2;520
3;517
4;513
5;511
6;510
7;508
8;507
9;510
10;512
11;513
12;513
13;515
14;517
15;516
0;517
1;517
2;515
3;515
4;514
5;512
6;512
7;511
8;508
9;509
10;509
11;508
12;509
13;512
14;515
15;516
0;518
1;519
2;519
3;515
4;512
5;507
6;508
7;511
8;513
9;516
10;518
11;518
12;520
13;524
14;525
15;527
0;530
1;533
2;537
3;541
4;541
5;539
6;534
7;522
8;517
9;513
10;510
11;510
12;512
13;516
14;518
15;515
0;513
1;516
2;519
3;519
4;516
5;514
6;513
7;511
8;507
9;502
10;498
11;498
12;501
13;501
14;501
15;506
0;512
1;520
2;528
3;530
4;530
5;528
6;527
7;526
8;524
9;524
10;524
11;524
12;522
13;521
14;525
15;530
0;536
1;538
2;539
3;541
4;543
5;544
6;542
7;540
8;539
9;537
10;536
11;537
12;536
13;538
14;537
15;535
0;529
1;527
2;526
3;527
4;529
5;524
6;520
7;522
8;519
9;514
10;515
11;516
12;518
13;518
14;519
15;520
0;521
1;521
2;518
3;516
4;513
5;509
6;505
7;504
8;503
9;501
10;500
11;498
12;498
13;496
14;494
15;494
0;497
1;499
2;504
3;509
4;512
5;513
6;514
7;514
8;514
9;513
10;511
11;507
12;505
13;504
14;504
15;505
0;507
1;511
2;512
3;516
4;518
5;516
6;515
7;513
8;512
9;511
10;510
11;510
12;508
13;506
14;504
15;503
0;504
1;504
2;507
3;510
4;513
5;514
6;515
7;516
8;519
9;523
10;525
11;524
12;518
13;512
14;506
15;499
0;494
1;492
2;498
3;502
4;506
5;511
6;513
7;514
8;510
9;513
10;520
11;523
12;524
13;522
14;519
15;515
0;511
1;513
2;520
3;528
4;534
5;545
6;555
7;562
8;572
9;586
10;600
11;614
12;629
13;646
14;661
15;678
0;694
1;704
2;711
3;716
4;724
5;736
6;746
7;751
8;754
9;754
10;749
11;735
12;717
13;700
14;681
15;652
0;622
1;593
2;561
3;528
4;493
5;456
6;425
7;399
8;379
9;363
10;355
11;352
12;348
13;348
14;351
15;354
0;359
1;364
2;370
3;380
4;391
5;402
6;415
7;428
8;439
9;449
10;459
11;465
12;468
13;472
14;475
15;479
0;478
1;473
2;472
3;471
4;472
5;476
6;478
7;481
8;484
9;489
10;494
11;496
12;496
13;498
14;499
15;499
0;500
1;501
2;502
3;504
4;507
5;511
6;515
7;519
8;525
9;530
10;535
11;539
12;539
13;538
14;533
15;529
0;526
1;522
2;517
3;512
4;511
5;512
6;514
7;514
8;515
9;519
10;528
11;535
12;537
13;535
14;531
15;526
0;522
1;519
2;516
3;515
4;515
5;515
6;519
7;521
8;520
9;522
10;529
11;533
12;536
13;539
14;541
15;539
0;536
1;534
2;532
3;528
4;526
5;524
6;524
7;523
8;524
9;527
10;531
11;534
12;536
13;536
14;536
15;537
0;537
1;537
2;537
3;537
4;538
5;537
6;534
7;533
8;538
9;542
10;543
11;546
12;549
13;550
14;547
15;544
0;544
1;543
2;541
3;538
4;532
5;531
6;531
7;531
8;533
9;535
10;536
11;531
12;529
13;529
14;530
15;532
0;532
1;530
2;525
3;522
4;521
5;524
6;527
7;531
8;536
9;542
10;546
11;550
12;553
13;554
14;553
15;554
0;551
1;551
2;549
3;550
4;552
5;552
6;551
7;551
8;551
9;548
10;546
11;546
12;547
13;550
14;553
15;555
0;558
1;559
2;559
3;559
4;558
5;559
6;559
7;559
8;559
9;560
10;563
11;564
12;562
13;563
14;564
15;566
0;569
1;571
2;572
3;573
4;575
5;575
6;572
7;567
8;566
9;568
10;568
11;569
12;572
13;570
14;570
15;570
0;570
1;570
2;565
3;557
4;550
5;545
6;542
7;537
8;533
9;531
10;528
11;525
12;523
13;524
14;523
15;525
0;527
1;527
2;531
3;531
4;530
5;529
6;524
7;520
8;515
9;514
10;512
11;510
12;508
13;505
14;502
15;501
0;500
1;498
2;495
3;494
4;491
5;487
6;485
7;483
8;480
9;480
10;480
11;479
12;478
13;478
14;476
15;477
0;480
1;482
2;481
3;480
4;479
5;478
6;476
7;472
8;471
9;469
10;469
11;469
12;466
13;463
14;463
15;464
0;464
1;465
2;466
3;468
4;469
5;469
6;467
7;465
8;465
9;464
10;462
11;461
12;462
13;464
14;467
15;470
0;472
1;469
2;467
3;470
4;472
5;473
6;475
7;474
8;471
9;468
10;469
11;472
12;476
13;480
14;482
15;481
0;480
1;481
2;484
3;486
4;487
5;486
6;487
7;487
8;487
9;486
10;485
11;484
12;483
13;480
14;478
15;477
0;476
1;478
2;477
3;477
4;478
5;480
6;481
7;480
8;480
9;480
10;482
11;483
12;483
13;481
14;480
15;480
0;483
1;486
2;490
3;492
4;495
5;499
6;502
7;502
8;503
9;504
10;504
11;500
12;493
13;486
14;482
15;479
0;481
1;486
2;488
3;491
4;496
5;497
6;498
7;499
8;499
9;498
10;493
11;489
12;493
13;496
14;499
15;500
0;500
1;500
2;501
3;500
4;498
5;498
6;498
7;500
8;503
9;503
10;500
11;497
12;496
13;497
14;496
15;497
0;494
1;493
2;498
3;503
4;504
5;504
6;505
7;506
8;506
9;508
10;508
11;507
12;508
13;509
14;511
15;513
0;515
1;516
2;518
3;519
4;518
5;516
6;518
7;520
8;520
9;519
10;518
11;514
12;511
13;509
14;508
15;506
0;502
1;499
2;498
3;496
4;497
5;499
6;500
7;504
8;506
9;510
10;515
11;522
12;524
13;519
14;514
15;512
0;508
1;503
2;502
3;499
4;498
5;499
6;505
7;511
8;513
9;515
10;514
11;514
12;515
13;514
14;512
15;509
0;507
1;504
2;501
3;499
4;499
5;498
6;498
7;499
8;501
9;503
10;504
11;504
12;505
13;505
14;505
15;505
0;505
1;507
2;508
3;507
4;506
5;507
6;510
7;515
8;518
9;522
10;526
11;526
12;524
13;521
14;520
15;519
0;516
1;515
2;514
3;516
4;517
5;517
6;522
7;527
8;531
9;532
10;530
11;531
12;531
13;528
14;524
15;520
0;517
1;515
2;513
3;511
4;510
5;513
6;517
7;523
8;525
9;519
10;515
11;511
12;507
13;505
14;506
15;506
0;505
1;503
2;497
3;492
4;490
5;491
6;490
7;489
8;491
9;493
10;492
11;493
12;497
13;501
14;504
15;504
0;503
1;501
2;496
3;491
4;486
5;483
6;483
7;485
8;487
9;489
10;489
11;489
12;490
13;492
14;495
15;495
0;495
1;495
2;496
3;495
4;492
5;490
6;491
7;495
8;496
9;496
10;496
11;497
12;499
13;499
14;496
15;495
0;496
1;499
2;501
3;502
4;501
5;500
6;499
7;493
8;486
9;484
10;484
11;486
12;487
13;491
14;494
15;497
0;500
1;502
2;500
3;498
4;497
5;496
6;494
7;492
8;492
9;492
10;495
11;497
12;499
13;499
14;502
15;504
0;503
1;500
2;500
3;497
4;495
5;492
6;491
7;495
8;497
9;496
10;496
11;499
12;503
13;505
14;510
15;515
0;521
1;528
2;533
3;538
4;542
5;548
6;557
7;570
8;589
9;606
10;620
11;635
12;651
13;667
14;683
15;700
0;712
1;718
2;723
3;728
4;729
5;728
6;723
7;717
8;706
9;689
10;672
11;654
12;637
13;615
14;592
15;565
0;537
1;510
2;479
3;446
4;412
5;383
6;357
7;337
8;324
9;316
10;314
11;316
12;322
13;334
14;345
15;356
0;368
1;379
2;387
3;396
4;406
5;414
6;418
7;423
8;426
9;426
10;428
11;431
12;433
13;436
14;441
15;448
0;453
1;460
2;463
3;467
4;472
5;475
6;475
7;475
8;474
9;474
10;473
11;477
12;481
13;483
14;485
15;487
0;488
1;492
2;498
3;501
4;499
5;496
6;495
7;494
8;495
9;496
10;497
11;495
12;494
13;495
14;500
15;501
0;501
1;504
2;505
3;507
4;513
5;518
6;519
7;518
8;515
9;517
10;519
11;519
12;519
13;517
14;513
15;512
0;512
1;513
2;515
3;519
4;523
5;522
6;520
7;518
8;517
9;516
10;515
11;521
12;527
13;531
14;532
15;530
0;526
1;524
2;525
3;527
4;526
5;524
6;524
7;524
8;520
9;516
10;512
11;508
12;507
13;505
14;507
15;511
0;510
1;509
2;509
3;509
4;511
5;515
6;521
7;528
8;535
9;538
10;537
11;540
12;541
13;540
14;536
15;531
0;527
1;524
2;520
3;520
4;521
5;523
6;527
7;529
8;530
9;532
10;532
11;531
12;529
13;528
14;524
15;521
0;522
1;520
2;520
3;519
4;521
5;528
6;536
7;543
8;546
9;547
10;549
11;546
12;543
13;541
14;540
15;541
0;542
1;544
2;548
3;552
4;551
5;551
6;553
7;556
8;558
9;559
10;557
11;553
12;552
13;550
14;546
15;543
0;542
1;543
2;546
3;551
4;554
5;556
6;558
7;562
8;566
9;567
10;566
11;562
12;560
13;558
14;558
15;560
0;559
1;555
2;554
3;555
4;558
5;560
6;561
7;564
8;566
9;568
10;567
11;567
12;567
13;563
14;561
15;556
0;551
1;546
2;543
3;541
4;541
5;542
6;541
7;542
8;546
9;549
10;550
11;550
12;548
13;542
14;535
15;531
0;529
1;525
2;521
3;515
4;511
5;508
6;505
7;504
8;508
9;512
10;509
11;506
12;505
13;504
14;501
15;498
0;494
1;492
2;488
3;484
4;483
5;481
6;481
7;481
8;480
9;481
10;483
11;486
12;489
13;490
14;488
15;484
0;479
1;471
2;466
3;465
4;464
5;467
6;472
7;474
8;474
9;475
10;479
11;484
12;488
13;486
14;485
15;483
0;482
1;483
2;480
3;478
4;479
5;480
6;480
7;480
8;478
9;476
10;478
11;485
12;491
13;492
14;492
15;491
0;489
1;488
2;484
3;479
4;476
5;477
6;478
7;480
8;486
9;488
10;488
11;489
12;489
13;487
14;486
15;488
0;488
1;486
2;482
3;478
4;476
5;477
6;476
7;477
8;479
9;481
10;483
11;487
12;493
13;496
14;497
15;497
0;497
1;498
2;493
3;492
4;490
5;484
6;485
7;487
8;490
9;495
10;499
11;504
12;505
13;505
14;504
15;500
0;498
1;498
2;497
3;499
4;499
5;498
6;495
7;496
8;499
9;503
10;507
11;509
12;513
13;518
14;520
15;520
0;519
1;516
2;511
3;505
4;503
5;499
6;497
7;495
8;492
9;490
10;489
11;493
12;496
13;496
14;497
15;498
0;499
1;500
2;501
3;504
4;508
5;512
6;514
7;510
8;508
9;507
10;510
11;512
12;511
13;511
14;512
15;516
0;518
1;516
2;514
3;514
4;513
5;514
6;514
7;518
8;518
9;513
10;508
11;505
12;502
13;505
14;510
15;515
0;518
1;521
2;519
3;517
4;520
5;521
6;521
7;520
8;519
9;517
10;512
11;510
12;512
13;515
14;520
15;523
0;523
1;527
2;529
3;525
4;524
5;525
6;523
7;519
8;515
9;513
10;513
11;513
12;517
13;524
14;526
15;525
0;521
1;518
2;517
3;515
4;517
5;518
6;519
7;521
8;521
9;519
10;516
11;515
12;516
13;517
14;516
15;515
0;517
1;520
2;523
3;526
4;526
5;527
6;524
7;519
8;517
9;515
10;513
11;508
12;506
13;508
14;513
15;519
0;521
1;521
2;524
3;524
4;524
5;526
6;525
7;525
8;528
9;528
10;523
11;519
12;518
13;516
14;517
15;518
0;517
1;520
2;525
3;531
4;533
5;532
6;532
7;531
8;532
9;530
10;523
11;514
12;509
13;509
14;512
15;515
0;520
1;524
2;527
3;529
4;531
5;532
6;534
7;536
8;535
9;530
10;527
11;526
12;524
13;525
14;526
15;527
0;529
1;531
2;535
3;542
4;548
5;552
6;552
7;553
8;552
9;547
10;542
11;540
12;535
13;532
14;531
15;530
0;531
1;537
2;542
3;542
4;540
5;539
6;537
7;532
8;528
9;523
10;519
11;519
12;517
13;515
14;515
15;512
0;510
1;512
2;513
3;514
4;518
5;519
6;516
7;517
8;518
9;519
10;518
11;513
12;509
13;502
14;497
15;498
0;500
1;504
2;506
3;507
4;508
5;508
6;511
7;514
8;519
9;521
10;524
11;523
12;521
13;519
14;514
15;510
0;508
1;509
2;511
3;515
4;517
5;516
6;515
7;518
8;521
9;521
10;523
11;521
12;518
13;515
14;511
15;511
0;509
1;505
2;504
3;502
4;505
5;508
6;510
7;513
8;518
9;521
10;524
11;530
12;534
13;534
14;533
15;531
0;529
1;528
2;526
3;524
4;520
5;519
6;519
7;519
8;521
9;522
10;524
11;523
12;521
13;521
14;521
15;522
0;521
1;519
2;517
3;515
4;514
5;517
6;522
7;529
8;540
9;553
10;566
11;578
12;595
13;612
14;628
15;642
0;652
1;664
2;676
3;689
4;701
5;716
6;729
7;738
8;744
9;749
10;752
11;756
12;758
13;754
14;744
15;725
0;707
1;688
2;668
3;644
4;619
5;587
6;556
7;523
8;489
9;454
10;428
11;403
12;379
13;367
14;362
15;354
0;349
1;345
2;344
3;348
4;355
5;361
6;367
7;374
8;384
9;396
10;405
11;415
12;424
13;431
14;437
15;444
0;449
1;454
2;456
3;462
4;466
5;471
6;474
7;474
8;476
9;478
10;478
11;480
12;482
13;487
14;493
15;498
0;503
1;504
2;505
3;503
4;497
5;493
6;488
7;487
8;492
9;498
10;503
11;502
12;501
13;501
14;504
15;510
0;512
1;512
2;512
3;511
4;507
5;502
6;500
7;497
8;495
9;496
10;500
11;503
12;504
13;505
14;507
15;507
0;504
1;508
2;511
3;509
4;508
5;505
6;505
7;504
8;505
9;506
10;506
11;503
12;499
13;499
14;501
15;499
0;500
1;503
2;502
3;505
4;504
5;503
6;503
7;508
8;507
9;503
10;505
11;508
12;508
13;507
14;507
15;505
0;506
1;509
2;509
3;509
4;505
5;504
6;504
7;503
8;501
9;500
10;500
11;500
12;500
13;498
14;497
15;498
0;499
1;499
2;501
3;502
4;505
5;507
6;508
7;508
8;507
9;506
10;507
11;508
12;509
13;509
14;510
15;512
0;516
1;520
2;521
3;520
4;519
5;518
6;518
7;518
8;518
9;519
10;519
11;519
12;518
13;518
14;519
15;522
0;528
1;531
2;532
3;534
4;532
5;530
6;527
7;527
8;530
9;530
10;528
11;527
12;528
13;530
14;531
15;531
0;531
1;533
2;533
3;536
4;540
5;541
6;540
7;537
8;533
9;529
10;524
11;523
12;524
13;528
14;532
15;532
0;533
1;536
2;537
3;539
4;539
5;540
6;540
7;539
8;538
9;539
10;536
11;532
12;527
13;527
14;530
15;534
0;534
1;534
2;535
3;535
4;532
5;529
6;526
7;523
8;519
9;517
10;513
11;510
12;510
13;510
14;508
15;508
0;507
1;508
2;511
3;514
4;517
5;515
6;515
7;514
8;512
9;508
10;503
11;495
12;487
13;482
14;479
15;478
0;478
1;479
2;481
3;484
4;487
5;490
6;492
7;492
8;490
9;486
10;480
11;473
12;467
13;462
14;459
15;456
0;455
1;457
2;457
3;459
4;462
5;466
6;470
7;472
8;473
9;473
10;474
11;472
12;470
13;465
14;459
15;454
0;455
1;457
2;460
3;461
4;462
5;466
6;471
7;475
8;475
9;476
10;478
11;480
12;478
13;475
14;472
15;472
0;471
1;470
2;472
3;475
4;477
5;480
6;484
7;483
8;481
9;480
10;476
11;474
12;475
13;474
14;473
15;474
0;473
1;475
2;479
3;484
4;487
5;487
6;489
7;490
8;492
9;492
10;492
11;491
12;488
13;485
14;483
15;480
0;476
1;476
2;478
3;480
4;482
5;482
6;483
7;485
8;487
9;492
10;496
11;498
12;497
13;497
14;494
15;492
0;492
1;492
2;493
3;494
4;496
5;496
6;496
7;498
8;499
9;500
10;501
11;500
12;500
13;501
14;501
15;498
0;498
1;493
2;489
3;493
4;497
5;501
6;504
7;504
8;508
9;512
10;513
11;513
12;514
13;514
14;509
15;504
0;499
1;493
2;495
3;499
4;502
5;505
6;507
7;505
8;505
9;508
10;513
11;517
12;517
13;515
14;515
15;513
0;512
1;513
2;512
3;510
4;508
5;508
6;509
7;512
8;515
9;515
10;515
11;523
12;523
13;519
14;513
15;511
0;511
1;509
2;509
3;509
4;511
5;513
6;515
7;516
8;519
9;520
10;523
11;523
12;526
13;527
14;528
15;527
0;523
1;521
2;521
3;519
4;519
5;518
6;521
7;524
8;525
9;525
10;523
11;520
12;522
13;524
14;528
15;530
0;530
1;531
2;532
3;534
4;533
5;529
6;524
7;523
8;522
9;522
10;521
11;522
12;523
13;524
14;526
15;526
0;526
1;525
2;524
3;522
4;517
5;516
6;518
7;521
8;525
9;527
10;531
11;535
12;540
13;539
14;538
15;538
0;536
1;536
2;536
3;535
4;532
5;531
6;527
7;522
8;524
9;525
10;524
11;525
12;527
13;527
14;527
15;530
0;534
1;535
2;533
3;532
4;535
5;537
6;536
7;533
8;528
9;526
10;525
11;525
12;527
13;529
14;532
15;533
0;534
1;534
2;530
3;530
4;531
5;529
6;524
7;523
8;527
9;529
10;532
11;535
12;537
13;537
14;539
15;545
0;550
1;551
2;553
3;553
4;550
5;547
6;545
7;545
8;547
9;547
10;546
11;548
12;546
13;547
14;548
15;548
0;547
1;548
2;550
3;551
4;550
5;547
6;547
7;545
8;540
9;535
10;531
11;529
12;527
13;524
14;522
15;523
0;523
1;524
2;526
3;531
4;539
5;542
6;542
7;535
8;522
9;515
10;511
11;510
12;509
13;509
14;512
15;514
0;517
1;519
2;523
3;525
4;523
5;519
6;518
7;518
8;515
9;514
10;516
11;514
12;515
13;516
14;517
15;518
0;521
1;526
2;529
3;531
4;532
5;532
6;531
7;529
8;529
9;529
10;527
11;526
12;528
13;527
14;525
15;525
0;525
1;526
2;526
3;529
4;532
5;533
6;533
7;534
8;532
9;529
10;527
11;527
12;527
13;528
14;527
15;526
0;526
1;528
2;532
3;535
4;534
5;534
6;534
7;534
8;534
9;535
10;532
11;529
12;526
13;525
14;523
15;524
0;528
1;532
2;535
3;536
4;538
5;540
6;541
7;541
8;543
9;550
10;556
11;561
12;569
13;578
14;588
15;601
0;616
1;632
2;651
3;672
4;695
5;713
6;729
7;744
8;755
9;763
10;773
11;780
12;781
13;779
14;777
15;774
0;768
1;755
2;737
3;723
4;711
5;691
6;666
7;636
8;601
9;570
10;536
11;498
12;461
13;430
14;405
15;385
0;370
1;364
2;366
3;371
4;380
5;387
6;394
7;403
8;413
9;420
10;423
11;425
12;427
13;428
14;430
15;433
0;437
1;443
2;450
3;456
4;463
5;473
6;479
7;485
8;494
9;499
10;501
11;499
12;500
13;500
14;502
15;505
0;507
1;509
2;511
3;516
4;520
5;522
6;523
7;524
8;525
9;526
10;527
11;527
12;526
13;525
14;524
15;525
0;527
1;526
2;528
3;533
4;536
5;539
6;542
7;545
8;547
9;548
10;547
11;542
12;539
13;536
14;534
15;531
0;529
1;529
2;529
3;531
4;534
5;537
6;543
7;546
8;547
9;544
10;541
11;541
12;543
13;542
14;543
15;540
0;538
1;536
2;535
3;535
4;537
5;540
6;540
7;543
8;547
9;551
10;551
11;550
12;546
13;543
14;541
15;538
0;536
1;535
2;539
3;540
4;539
5;539
6;539
7;537
8;540
9;546
10;549
11;549
12;549
13;550
14;551
15;550
0;548
1;545
2;541
3;540
4;540
5;542
6;547
7;551
8;557
9;563
10;565
11;560
12;554
13;549
14;545
15;541
0;538
1;540
2;543
3;545
4;546
5;549
6;549
7;548
8;550
9;552
10;556
11;560
12;564
13;567
14;564
15;563
0;563
1;565
2;563
3;557
4;554
5;553
6;552
7;550
8;550
9;556
10;564
11;572
12;578
13;579
14;577
15;575
0;575
1;575
2;572
3;569
4;569
5;568
6;566
7;565
8;568
9;570
10;572
11;577
12;579
13;581
14;581
15;583
0;582
1;580
2;577
3;572
4;568
5;567
6;566
7;564
8;564
9;569
10;574
11;578
12;581
13;583
14;583
15;584
0;581
1;582
2;576
3;572
4;570
5;567
6;566
7;568
8;569
9;567
10;566
11;567
12;568
13;568
14;567
15;565
0;564
1;564
2;564
3;564
4;559
5;555
6;553
7;551
8;548
9;542
10;536
11;532
12;529
13;527
14;527
15;526
0;525
1;524
2;521
3;519
4;513
5;507
6;503
7;500
8;500
9;500
10;500
11;502
12;502
13;504
14;504
15;502
0;502
1;503
2;503
3;499
4;494
5;489
6;486
7;483
8;481
9;479
10;480
11;483
12;486
13;488
14;492
15;498
0;501
1;500
2;499
3;496
4;490
5;484
6;483
7;486
8;484
9;481
10;480
11;481
12;484
13;488
14;495
15;503
0;504
1;503
2;500
3;498
4;498
5;496
6;491
7;484
8;477
9;473
10;472
11;475
12;479
13;484
14;490
15;494
0;499
1;503
2;505
3;506
4;504
5;503
6;499
7;499
8;498
9;491
10;482
11;479
12;480
13;485
14;489
15;488
0;489
1;494
2;494
3;494
4;494
5;491
6;487
7;483
8;484
9;488
10;489
11;490
12;493
13;486
14;485
15;492
0;499
1;502
2;500
3;505
4;507
5;503
6;498
7;494
8;494
9;494
10;495
11;495
12;496
13;498
14;500
15;501
0;502
1;499
2;497
3;497
4;500
5;504
6;508
7;508
8;503
9;497
10;492
11;487
12;488
13;492
14;494
15;493
0;493
1;497
2;500
3;502
4;502
5;503
6;504
7;504
8;504
9;501
10;499
11;500
12;500
13;499
14;496
15;495
0;500
1;505
2;508
3;510
4;511
5;512
6;512
7;511
8;510
9;507
10;505
11;503
12;502
13;503
14;505
15;507
0;508
1;509
2;508
3;509
4;510
5;510
6;513
7;517
8;520
9;519
10;515
11;510
12;506
13;504
14;503
15;505
0;507
1;506
2;508
3;510
4;511
5;512
6;511
7;511
8;513
9;513
10;515
11;515
12;514
13;514
14;513
15;511
0;510
1;507
2;507
3;506
4;508
5;513
6;520
7;524
8;524
9;525
10;523
11;516
12;513
13;510
14;508
15;505
0;501
1;497
2;494
3;499
4;505
5;509
6;512
7;514
8;515
9;511
10;509
11;509
12;509
13;507
14;504
15;500
0;498
1;496
2;496
3;498
4;501
5;504
6;507
7;508
8;507
9;505
10;503
11;504
12;503
13;501
14;497
15;496
0;495
1;494
2;495
3;497
4;502
5;504
6;505
7;504
8;504
9;504
10;507
11;506
12;501
13;497
14;498
15;496
0;495
1;494
2;492
3;492
4;492
5;494
6;497
7;502
8;508
9;513
10;517
11;519
12;518
13;514
14;510
15;506
0;502
1;500
2;499
3;501
4;503
5;507
6;510
7;511
8;511
9;512
10;512
11;510
12;511
13;513
14;511
15;508
0;501
1;497
2;501
3;503
4;504
5;503
6;504
7;504
8;505
9;507
10;506
11;507
12;509
13;510
14;510
15;511
0;512
1;510
2;508
3;505
4;503
5;506
6;508
7;512
8;516
9;518
10;520
11;521
12;524
13;528
14;530
15;528
0;524
1;517
2;512
3;507
4;506
5;507
6;509
7;512
8;515
9;519
10;520
11;518
12;518
13;517
14;516
15;515
0;513
1;511
2;507
3;505
4;503
5;499
6;494
7;489
8;490
9;492
10;496
11;498
12;501
13;503
14;498
15;491
0;485
1;479
2;476
3;472
4;472
5;471
6;469
7;472
8;479
9;490
10;496
11;500
12;505
13;505
14;504
15;502
0;499
1;496
2;496
3;496
4;496
5;491
6;485
7;483
8;482
9;483
10;485
11;486
12;488
13;488
14;488
15;488
0;488
1;486
2;483
3;481
4;481
5;479
6;478
7;476
8;479
9;479
10;477
11;474
12;475
13;478
14;482
15;487
0;491
1;492
2;489
3;486
4;483
5;480
6;479
7;479
8;478
9;480
10;481
11;483
12;482
13;482
14;485
15;487
0;491
1;496
2;499
3;495
4;492
5;490
6;480
7;468
8;458
9;456
10;462
11;469
12;476
13;485
14;495
15;505
0;510
1;515
2;522
3;530
4;540
5;551
6;564
7;582
8;600
9;619
10;638
11;655
12;674
13;691
14;707
15;718
0;728
1;739
2;745
3;749
4;748
5;741
6;728
7;708
8;688
9;670
10;648
11;623
12;598
13;570
14;541
15;508
0;473
1;440
2;410
3;383
4;359
5;339
6;326
7;318
8;315
9;316
10;321
11;328
12;337
13;347
14;355
15;365
0;376
1;386
2;395
3;398
4;401
5;407
6;410
7;413
8;414
9;416
10;418
11;423
12;431
13;438
14;443
15;447
0;451
1;455
2;459
3;462
4;463
5;465
6;470
7;475
8;475
9;475
10;473
11;469
12;469
13;471
14;472
15;474
0;479
1;484
2;488
3;489
4;488
5;487
6;486
7;487
8;489
9;488
10;488
11;486
12;488
13;489
14;490
15;494
0;497
1;498
2;499
3;499
4;501
5;495
6;490
7;491
8;491
9;490
10;488
11;487
12;485
13;485
14;488
15;493
0;499
1;500
2;502
3;505
4;500
5;497
6;496
7;496
8;495
9;496
10;498
11;496
12;495
13;493
14;496
15;500
0;503
1;504
2;504
3;505
4;510
5;511
6;509
7;507
8;507
9;505
10;504
11;502
12;496
13;494
14;494
15;494
0;499
1;504
2;504
3;508
4;509
5;509
6;512
7;513
8;513
9;511
10;510
11;511
12;508
13;505
14;501
15;496
0;495
1;495
2;497
3;498
4;499
5;502
6;506
7;512
8;517
9;517
10;518
11;518
12;519
13;518
14;516
15;515
0;516
1;517
2;515
3;515
4;519
5;522
6;523
7;523
8;528
9;532
10;536
11;537
12;535
13;533
14;530
15;528
0;527
1;528
2;531
3;535
4;537
5;539
6;539
7;542
8;544
9;542
10;542
11;544
12;546
13;545
14;543
15;541
0;542
1;545
2;545
3;543
4;542
5;543
6;543
7;542
8;541
9;541
10;542
11;545
12;547
13;548
14;546
15;541
0;539
1;538
2;540
3;543
4;546
5;547
6;547
7;544
8;543
9;538
10;533
11;530
12;528
13;528
14;529
15;530
0;528
1;527
2;528
3;524
4;520
5;521
6;519
7;517
8;517
9;514
10;513
11;513
12;511
13;507
14;506
15;503
0;499
1;497
2;495
3;492
4;490
5;491
6;492
7;491
8;491
9;491
10;492
11;492
12;488
13;487
14;485
15;479
0;476
1;474
2;473
3;470
4;465
5;464
6;462
7;460
8;461
9;463
10;465
11;467
12;468
13;468
14;466
15;463
0;461
1;459
2;457
3;455
4;453
5;452
6;452
7;453
8;455
9;458
10;460
11;466
12;469
13;471
14;470
15;470
0;468
1;467
2;462
3;459
4;459
5;460
6;459
7;458
8;459
9;461
10;460
11;463
12;463
13;467
14;466
15;465
0;465
1;466
2;468
3;469
4;466
5;464
6;460
7;457
8;457
9;459
10;462
11;464
12;468
13;472
14;473
15;472
0;469
1;467
2;467
3;467
4;467
5;464
6;463
7;463
8;464
9;466
10;467
11;467
12;467
13;467
14;469
15;472
0;473
1;477
2;484
3;496
4;504
5;509
6;509
7;503
8;492
9;480
10;476
11;473
12;473
13;475
14;477
15;479
0;480
1;478
2;476
3;477
4;480
5;480
6;480
7;481
8;482
9;483
10;483
11;480
12;478
13;480
14;485
15;489
0;493
1;495
2;496
3;497
4;495
5;492
6;491
7;491
8;492
9;491
10;488
11;486
12;487
13;488
14;492
15;493
0;492
1;487
2;487
3;489
4;490
5;491
6;492
7;495
8;498
9;499
10;497
11;495
12;493
13;490
14;490
15;491
0;494
1;497
2;500
3;502
4;504
5;504
6;504
7;502
8;502
9;505
10;503
11;499
12;498
13;501
14;503
15;503
0;503
1;503
2;502
3;501
4;500
5;502
6;502
7;500
8;500
9;502
10;502
11;504
12;508
13;509
14;508
15;509
0;512
1;517
2;515
3;515
4;517
5;516
6;512
7;508
8;504
9;501
10;501
11;498
12;497
13;500
14;505
15;510
0;514
1;519
2;522
3;523
4;519
5;519
6;518
7;518
8;518
9;517
10;515
11;515
12;517
13;516
14;515
15;512
0;510
1;511
2;517
3;521
4;524
5;522
6;517
7;512
8;507
9;500
10;497
11;496
12;495
13;497
14;503
15;505
0;508
1;509
2;509
3;511
4;512
5;509
6;508
7;507
8;507
9;509
10;509
11;506
12;502
13;498
14;497
15;499
0;498
1;497
2;499
3;504
4;508
5;511
6;512
7;512
8;513
9;515
10;518
11;516
12;512
13;508
14;504
15;502
0;499
1;498
2;500
3;501
4;503
5;503
6;502
7;503
8;502
9;504
10;502
11;500
12;497
13;497
14;499
15;497
0;496
1;499
2;502
3;508
4;512
5;517
6;520
7;521
8;519
9;517
10;517
11;514
12;511
13;510
14;509
15;508
0;512
1;516
2;519
3;521
4;523
5;526
6;528
7;531
8;535
9;535
10;528
11;523
12;521
13;518
14;514
15;512
0;510
1;512
2;519
3;521
4;520
5;517
6;513
7;511
8;511
9;510
10;508
11;507
12;503
13;498
14;493
15;492
0;493
1;493
2;494
3;498
4;500
5;500
6;502
7;500
8;500
9;502
10;506
11;509
12;507
13;504
14;501
15;499
0;494
1;489
2;488
3;492
4;497
5;501
6;502
7;504
8;504
9;507
10;506
11;504
12;502
13;503
14;508
15;510
0;508
1;503
2;497
3;495
4;495
5;491
6;490
7;494
8;498
9;500
10;503
11;503
12;501
13;500
14;498
15;497
0;495
1;492
2;493
3;493
4;495
5;501
6;506
7;509
8;512
9;515
10;516
11;511
12;505
13;502
14;499
15;499
0;497
1;497
2;497
3;495
4;491
5;488
6;487
7;488
8;493
9;501
10;507
11;510
12;510
13;507
14;502
15;498
0;498
1;500
2;504
3;507
4;503
5;502
6;504
7;503
8;500
9;503
10;511
11;520
12;529
13;539
14;547
15;560
0;575
1;591
2;604
3;614
4;628
5;647
6;667
7;685
8;699
9;713
10;723
11;733
12;742
13;747
14;750
15;745
0;735
1;721
2;699
3;678
4;656
5;633
6;611
7;585
8;556
9;530
10;503
11;471
12;439
13;412
14;387
15;365
0;349
1;340
2;334
3;332
4;336
5;344
6;353
7;361
8;366
9;373
10;382
11;389
12;395
13;400
14;410
15;420
0;428
1;434
2;436
3;437
4;439
5;440
6;443
7;445
8;449
9;450
10;453
11;459
12;466
13;472
14;477
15;480
0;483
1;483
2;485
3;490
4;489
5;489
6;491
7;492
8;492
9;494
10;496
11;495
12;494
13;494
14;496
15;501
0;503
1;504
2;505
3;508
4;514
5;518
6;516
7;512
8;509
9;505
10;501
11;499
12;500
13;498
14;498
15;499
0;498
1;499
2;498
3;499
4;498
5;496
6;495
7;495
8;496
9;496
10;500
11;504
12;505
13;504
14;504
15;504
0;505
1;509
2;513
3;515
4;517
5;518
6;515
7;510
8;505
9;505
10;507
11;510
12;513
13;515
14;516
15;519
0;523
1;526
2;528
3;526
4;520
5;515
6;511
